8184872
9965800
11642800
13032920
14091648
14840064
15329640
15589680
15674344
15689344
15691552
15687296
15680440
15673600
15667872
15663784
15661520
15660800
15661256
15662440
15664104
15666256
15668408
15670360
15672376
15674288
15676008
15677776
15679496
15680888
15682256
15683544
15684736
15685832
15686792
15687800
15688824
15689712
15690688
15691680
15692448
15693168
15694040
15694832
15695512
15696024
15696456
15696968
15697656
15698264
15698736
15699376
15700024
15700528
15700928
15701344
15701792
15702160
15702608
15703032
15703208
15703240
15703248
15703344
15703456
15703472
15703488
15703464
15703296
15703096
15702968
15702904
15702896
15703040
15703336
15703632
15703640
15703480
15703344
15703304
15703240
15703144
15703096
15702984
15702888
15702720
15702520
15702408
15702360
15702400
15702520
15702512
15702344
15702256
15702264
15702176
15701984
15701896
15701712
15701496
15701392
15701264
15701128
15701112
15701232
15701400
15701368
15701104
15700840
15700704
15700616
15700400
15700120
15699976
15699912
15699824
15699656
15699544
15699464
15699296
15699000
15698768
15698712
15698720
15698664
15698680
15698672
15698536
15698240
15697856
15697664
15697448
15697056
15696752
15696504
15696176
15695920
15695856
15695824
15695840
15695872
15695792
15695824
15696000
15696336
15696576
15696648
15696640
15696560
15696472
15696376
15696360
15696184
15695880
15695712
15695576
15695560
15695568
15695408
15695128
15694824
15694584
15694408
15694280
15694176
15694248
15694376
15694448
15694528
15694776
15695080
15695224
15695344
15695488
15695384
15695168
15695064
15694864
15694592
15694352
15693992
15693712
15693568
15693424
15693464
15693392
15693184
15693176
15693216
15693312
15693408
15693552
15693776
15693840
15693792
15693816
15693784
15693680
15693608
15693640
15693616
15693472
15693296
15693000
15692816
15692824
15692752
15692792
15692952
15692928
15692840
15692848
15692784
15692680
15692528
15692344
15692264
15692256
15692376
15692416
15692400
15692544
15692568
15692488
15692328
15692168
15692192
15692280
15692336
15692328
15692328
15692376
15692488
15692512
15692688
15692824
15692752
15692888
15692824
15692568
15692440
15692392
15692216
15692016
15692040
15692256
15692464
15692400
15692256
15692328
15692552
15692672
15692592
15692416
15692248
15692200
15692360
15692528
15692696
15692848
15692832
15692880
15692968
15693016
15693176
15693456
15693512
15693504
15693504
15693480
15693592
15693600
15693424
15693272
15693136
15692920
15692664
15692360
15692080
15691984
15691960
15691976
15691992
15692144
15692392
15692600
15692992
15693200
15693184
15693088
15692992
15693168
15693392
15693432
15693384
15693320
15691784
15682640
15594864
15323200
14923592
14533616
14224536
14019352
13901232
13846880
13815856
13795896
13794728
13802896
13808688
13790896
13751416
13709040
13672760
13658408
13659648
13666528
13693104
13727232
13766176
13816888
13866584
13926496
13997848
14070960
14142976
14202968
14263368
14324840
14384248
14453432
14529584
14635328
14798920
15038216
15355520
15609648
15722296
15763688
15774936
15792464
15775512
15705896
15609384
15476144
15298944
15188144
15220632
15321688
15443168
15555368
15630832
15663080
15675248
15682736
15687216
15689408
15690168
15690128
15689616
15689064
15688624
15688360
15688288
15688216
15688160
15688160
15688032
15688080
15688336
15688528
15688800
15689176
15689600
15690080
15690464
15690856
15690976
15690912
15691080
15691232
15691352
15691408
15691312
15691320
15691584
15691856
15706232
15722616
15733264
15744984
15745680
15744872
15747920
15754208
15765384
15774680
15783632
15790584
15786544
15762496
15713416
15644232
15528744
15367416
15222480
15105704
15015416
14956984
14903984
14880448
14893992
14921928
14974936
15029072
15059888
14994824
14799528
14588312
14422728
14319512
14298384
14327896
14402368
14507000
14608304
14715136
14807248
14882536
14954448
15004632
15052688
15094936
15122320
15155696
15178008
15198456
15224544
15241648
15272648
15303664
15321392
15336848
15324232
15317472
15353672
15285920
15162656
15177200
15288728
15421720
15543456
15626384
15662240
15675368
15683512
15688128
15690384
15691096
15690936
15690480
15690016
15689632
15689120
15646208
15581288
15481848
15352152
15239256
15064416
14900792
14822272
14796176
14858552
14952712
15054536
15178088
15265912
15354760
15440720
15508472
15591896
15643480
15660984
15674208
15678984
15686216
15691024
15692840
15698552
15699704
15702616
15705976
15704976
15707720
15707224
15706104
15708200
15706672
15708400
15708976
15706672
15707648
15703648
15698976
15694440
15686080
15681544
15676040
15671256
15671144
15668336
15668680
15669536
15668216
15670904
15670664
15670784
15672776
15671344
15673112
15673504
15672232
15673888
15672120
15671944
15671504
15667136
15665184
15659632
15653824
15651176
15644432
15645576
15647488
15643648
15648784
15653304
15660280
15669600
15725832
15835056
15908112
15921648
15897568
15856984
15813888
15774904
15743704
15720568
15705152
15695712
15690736
15688768
15688792
15689560
15690672
15691888
15692816
15693424
15693800
15694040
15694040
15693904
15693744
15693432
15693056
15692856
15692816
15692744
15692624
15692560
15692640
15692784
15692784
15692808
15693008
15693128
15693184
15693312
15693296
15693232
15693232
15693112
15693112
15693120
15692992
15692768
15692568
15692296
15692088
15692160
15692176
15692144
15692064
15691936
15691848
15691776
15691672
15691528
15691560
15691736
15691696
15691592
15691496
15691360
15691304
15691240
15691120
15691224
15691280
15691160
15691120
15691256
15691384
15691312
15691384
15691600
15691656
15691432
15691240
15691144
15691008
15690808
15690696
15690632
15690512
15690376
15690208
15690056
15689960
15689768
15689600
15689600
15689672
15689624
15689456
15689328
15689200
15689168
15689216
15689288
15689296
15689344
15689448
15689424
15689464
15689448
15689552
15689752
15689824
15689928
15689936
15689872
15689800
15689720
15689664
15689536
15689416
15689464
15689432
15689424
15689608
15689784
15689944
15690072
15690208
15690216
15690320
15690496
15690408
15690352
15690384
15690256
15690144
15690272
15690512
15690608
15690712
15690784
15690856
15691032
15691144
15691256
15691312
15691168
15691160
15691320
15691376
15691504
15691504
15691256
15691072
15690968
15690880
15690712
15690584
15690608
15690600
15690744
15691064
15691256
15691232
15691112
15690968
15690904
15690888
15690808
15690752
15690840
15690992
15690880
15690688
15690656
15690656
15690664
15690704
15690792
15690744
15690552
15690464
15690400
15690328
15690376
15690392
15690368
15690328
15690144
15690160
15690312
15690328
15690216
15690112
15690072
15689920
15689776
15689640
15689376
15689192
15689256
15689336
15689360
15689376
15689328
15689344
15689320
15689304
15689432
15689504
15689456
15689480
15689608
15689632
15689640
15689576
15689432
15689432
15689544
15689688
15689768
15689856
15689928
15689824
15689680
15689728
15689720
15689744
15689848
15689648
15689312
15689048
15689024
15689032
15688904
15688880
15688840
15688712
15688672
15688616
15688384
15688232
15688312
15688448
15688640
15688992
15689256
15689328
15689328
15689264
15689304
15689288
15689088
15688936
15688880
15689016
15689208
15689344
15689496
15689728
15689920
15689872
15689776
15689664
15689432
15689264
15689288
15689504
15689624
15689664
15689664
15689488
15689392
15689376
15689384
15689504
15689552
15689624
15689728
15689704
15689648
15689656
15689696
15689752
15689808
15689808
15689752
15689680
15689664
15689832
15690048
15690192
15690344
15690432
15690408
15690424
15690584
15690648
15690608
15690552
15690432
15690184
15689936
15689880
15689952
15689984
15689968
15689960
15689992
15689960
15689784
15689592
15689424
15689400
15689320
15689368
15689704
15689864
15689880
15689952
15690040
15690168
15690408
15690576
15690496
15690408
15690424
15690400
15690424
15690504
15690584
15690640
15690592
15690352
15690272
15690296
15690160
15690088
15690008
15690048
15690072
15690008
15690144
15690208
15690368
15690608
15690600
15690560
15690432
15690264
15690160
15690120
15690176
15690240
15690224
15690296
15690504
15690672
15690848
15691104
15691424
15691576
15691408
15690968
15690512
15690320
15690072
15689744
15689552
15689328
15689320
15689376
15689256
15689016
15688744
15688680
15688648
15688680
15688728
15688720
15688816
15688864
15688856
15688864
15688944
15689040
15688992
15688896
15688856
15688864
15688864
15688896
15689040
15689136
15689024
15688936
15688936
15688960
15689080
15689096
15689088
15689184
15689160
15689032
15688848
15688744
15688600
15688464
15688360
15688344
15688512
15688600
15688592
15688672
15688904
15689104
15689040
15688848
15688720
15688616
15688464
15688336
15688376
15688432
15688456
15688584
15688808
15688936
15688992
15688968
15688816
15688888
15689000
15689008
15689160
15689360
15689464
15689440
15689456
15689568
15689560
15689424
15689448
15689632
15689688
15689848
15690024
15690088
15690224
15690312
15690344
15690272
15690184
15690184
15690120
15689968
15689808
15689680
15689512
15689488
15689512
15689448
15689456
15689512
15689496
15689448
15689464
15689472
15689392
15689304
15689312
15689320
15689256
15689224
15689296
15689400
15689488
15689608
15689624
15689576
15689688
15689760
15689712
15689616
15689480
15689352
15689264
15689304
15689488
15689704
15689888
15689904
15689880
15690008
15690128
15690176
15690240
15690104
15689864
15689792
15689720
15689672
15689536
15689480
15689584
15689584
15689576
15689584
15689520
15689440
15689424
15689360
15689248
15689184
15689192
15689240
15689168
15689152
15689136
15689144
15689320
15689584
15689808
15689976
15690104
15690096
15689952
15689720
15689624
15689600
15689528
15689488
15689584
15689720
15689792
15689904
15689912
15689792
15689832
15689848
15689792
15689912
15690056
15690120
15690048
15689976
15690064
15690072
15689880
15689568
15689360
15689264
15689056
15689008
15689120
15689120
15689144
15689232
15689240
15689288
15689360
15689368
15689352
15689312
15689304
15689392
15689560
15689592
15689664
15690032
15690424
15690568
15690552
15690560
15690528
15690448
15690376
15690360
15690280
15690256
15690352
15690528
15690840
15690848
15690808
15690912
15690792
15690616
15690376
15690184
15690280
15690304
15690224
15690192
15690112
15690088
15690104
15690040
15690032
15690088
15690096
15689984
15689768
15689608
15689456
15689352
15689448
15689608
15689736
15689776
15689776
15689848
15689848
15689872
15690112
15690336
15690496
15690616
15690680
15690816
15690928
15691008
15691064
15690992
15690912
15690768
15690552
15690376
15690304
15690368
15690320
15690304
15690464
15690512
15690544
15690768
15691000
15691112
15691072
15691000
15690984
15690968
15690992
15690984
15690768
15690648
15690608
15690616
15690736
15690824
15690864
15690720
15690744
15690800
15690584
15690368
15690224
15690104
15690208
15690392
15690440
15690632
15690800
15690912
15691064
15691184
15691344
15691488
15691680
15691816
15691768
15691696
15691816
15691856
15691632
15691320
15691016
15690848
15690680
15690600
15690544
15690336
15690016
15689856
15689728
15689592
15689632
15689616
15689448
15689248
15689160
15689064
15689008
15689080
15689288
15689560
15689664
15689584
15689672
15689928
15690128
15690320
15690464
15690632
15690936
15691264
15691336
15691168
15691144
15691128
15691072
15691096
15691000
15690880
15690808
15690704
15690664
15690704
15690712
15690776
15690880
15690824
15690768
15690856
15690952
15690936
15690968
15691160
15691120
15690848
15690704
15690720
15690728
15690720
15690808
15690840
15690856
15690888
15690808
15690800
15690896
15691080
15691368
15691424
15691328
15691368
15691424
15691488
15691560
15691536
15691424
15691256
15690976
15690664
15690432
15690400
15690440
15690440
15690432
15690432
15690472
15690400
15690312
15690328
15690400
15690472
15690544
15690552
15690448
15690224
15689936
15689648
15689456
15689296
15689104
15689280
15689440
15689384
15689512
15689744
15689952
15690136
15690216
15690336
15690344
15690272
15690176
15690056
15690048
15689880
15689704
15689752
15689776
15689728
15689776
15689776
15689792
15689840
15689880
15690008
15690032
15689848
15689528
15689216
15689080
15689096
15689064
15688992
15689120
15689288
15689256
15689312
15689480
15689640
15689808
15689880
15689880
15689792
15689712
15689560
15689256
15689080
15688912
15688768
15688768
15688928
15689096
15689264
15689560
15689768
15689608
15689360
15689456
15689488
15689424
15689368
15689320
15689304
15689192
15689176
15689112
15689064
15689168
15689216
15689232
15689272
15689424
15689496
15689432
15689480
15689600
15689792
15689976
15690152
15690544
15690808
15690944
15690944
15690792
15690672
15690472
15690416
15690568
15690680
15690624
15690504
15690488
15690648
15690696
15690592
15690536
15690432
15690216
15690072
15689952
15689896
15689968
15690008
15690216
15690392
15690344
15690088
15689608
15689256
15689056
15688912
15689032
15689208
15689456
15689864
15690088
15690208
15690408
15690512
15690400
15690192
15690016
15689840
15689704
15689616
15689648
15689912
15690248
15690456
15690624
15690816
15690888
15690904
15690944
15690992
15690944
15691032
15691128
15691016
15690960
15690808
15690536
15690400
15690528
15690744
15690928
15691056
15691056
15691088
15691256
15691416
15691400
15691448
15691472
15691320
15691240
15691064
15690768
15690520
15690408
15690464
15690616
15690824
15690872
15690816
15690768
15690760
15690824
15690688
15690456
15690392
15690248
15690072
15690024
15690136
15690144
15690144
15690312
15690288
15690104
15689984
15690016
15690000
15689888
15689872
15689952
15689952
15689968
15690120
15690200
15690072
15689816
15689584
15689320
15689264
15689360
15689432
15689600
15689736
15689912
15690152
15690264
15690368
15690488
15690432
15690328
15690192
15689872
15689624
15689672
15689720
15689752
15689736
15689664
15689672
15689528
15689328
15689200
15689088
15689064
15689160
15689192
15689128
15689008
15688880
15688848
15688840
15688944
15689104
15689256
15689416
15689408
15689184
15688976
15688840
15688752
15688824
15688864
15688840
15688712
15688672
15688696
15688472
15688368
15688480
15688512
15688544
15688584
15688680
15689000
15689256
15689384
15689424
15689304
15689216
15689176
15689224
15689304
15689336
15689456
15689504
15689456
15689552
15689784
15689816
15689680
15689640
15689736
15689824
15689896
15690000
15690048
15689984
15689664
15689104
15688544
15688264
15688160
15688296
15688200
15687904
15687696
15687400
15687248
15687120
15686944
15687000
15687168
15687264
15687368
15687256
15687120
15687064
15686976
15686952
15686816
15686832
15686944
15686928
15686896
15686864
15686896
15686904
15686976
15687080
15687032
15686992
15686960
15687048
15687296
15687416
15687496
15687520
15687472
15687400
15687368
15687344
15687336
15687352
15687440
15687608
15687664
15687696
15687624
15687544
15687672
15687728
15687616
15687600
15687760
15687768
15687680
15687728
15687632
15687464
15687352
15687192
15687208
15687400
15687504
15687552
15687608
15687736
15687896
15688056
15688168
15688128
15688056
15688008
15687992
15687976
15688016
15688184
15688344
15688328
15688352
15688576
15688664
15688544
15688560
15688616
15688576
15688576
15688640
15688712
15688584
15688384
15688344
15688400
15688560
15688712
15688784
15688880
15689064
15689152
15689088
15688912
15688752
15688752
15688800
15688864
15688824
15688736
15688688
15688776
15688992
15688936
15688744
15688576
15688264
15687928
15687696
15687704
15687872
15688008
15688144
15688288
15688456
15688664
15688792
15688784
15688824
15688928
15689080
15689280
15689432
15689592
15689648
15689608
15689504
15689304
15689120
15688952
15688808
15688704
15688624
15688664
15688896
15689104
15689296
15689488
15689584
15689696
15689840
15689976
15690144
15690312
15690496
15690696
15690832
15690928
15690944
15690824
15690640
15690544
15690448
15690312
15690136
15690032
15689968
15689896
15689744
15689648
15689712
15689768
15690000
15690176
15690176
15690064
15689984
15689952
15689840
15689912
15690184
15690432
15690592
15690624
15690584
15690528
15690376
15690256
15690200
15690144
15690088
15690120
15690200
15690240
15690320
15690264
15690072
15689864
15689752
15689736
15689688
15689776
15689968
15690016
15690056
15690168
15690312
15690384
15690296
15690112
15689936
15689872
15689960
15689992
15689856
15689848
15689944
15689928
15689776
15689688
15689592
15689416
15689256
15689192
15689216
15689072
15688928
15688936
15688864
15688720
15688400
15687984
15687584
15687272
15687104
15686984
15686888
15686712
15686504
15686232
15685920
15685760
15685712
15685696
15685728
15685696
15685664
15685712
15685656
15685272
15684736
15684312
15684016
15683872
15683736
15683688
15683632
15683536
15683400
15683176
15682888
15682720
15682680
15682680
15682864
15683064
15683184
15683200
15683176
15683240
15683280
15683296
15683248
15683264
15683552
15683632
15683600
15683720
15683984
15684208
15684216
15684136
15684064
15684016
15683832
15683640
15683584
15683728
15683840
15683824
15683808
15683856
15684040
15684192
15684256
15684416
15684328
15684096
15684136
15684384
15684528
15684576
15684528
15684328
15684136
15683992
15683912
15683952
15684016
15683968
15683944
15683872
15683904
15683992
15683936
15683880
15683864
15683912
15684000
15684008
15684024
15684144
15684296
15684480
15684728
15685032
15685184
15685216
15685280
15685312
15685216
15685208
15685280
15685328
15685472
15685512
15685408
15685160
15685040
15685216
15685280
15685112
15685152
15685240
15685304
15685384
15685376
15685472
15685512
15685568
15685632
15685712
15685816
15685792
15685792
15685792
15685712
15685672
15685536
15685392
15685240
15685016
15684856
15684592
15684400
15684168
15683976
15684024
15684048
15684112
15684248
15684384
15684592
15684744
15684992
15685368
15685568
15685664
15685824
15685928
15685944
15685992
15685864
15685560
15685216
15684880
15684696
15684528
15684416
15684416
15684536
15684704
15684784
15684736
15684464
15684144
15683960
15683880
15683896
15683792
15683488
15683176
15682736
15682200
15681736
15681312
15680912
15680752
15680840
15681064
15681376
15681744
15682008
15682144
15682416
15682824
15683072
15683000
15682784
15682600
15682536
15682528
15682664
15682904
15683016
15683096
15683320
15683560
15683624
15683696
15683784
15683768
15683752
15683752
15683776
15684072
15684688
15685400
15686088
15686744
15687384
15687920
15688184
15688320
15688312
15688000
15687712
15687528
15687248
15686976
15686912
15686944
15687000
15687152
15687248
15687320
15687352
15687480
15687432
15687224
15687264
15687384
15687360
15687384
15687912
15688616
15689120
15689360
15689264
15688728
15687912
15687064
15686488
15686040
15685552
15685304
15685208
15685272
15685536
15685832
15686208
15686688
15687080
15687328
15687320
15687144
15687072
15687080
15687088
15687032
15687072
15687232
15687400
15687472
15687640
15687976
15688192
15688352
15688488
15688568
15688864
15689272
15689720
15690200
15690488
15690504
15690176
15689608
15688944
15688256
15687352
15686344
15685512
15684784
15684176
15683920
15683864
15684040
15684608
15685272
15686008
15686824
15687616
15688128
15688312
15688352
15688264
15688128
15688184
15688352
15688488
15688808
15689112
15689256
15689384
15689376
15689280
15689048
15688744
15688360
15688000
15687824
15687608
15687392
15687184
15687160
15687432
15687720
15687928
15688144
15688392
15688512
15688360
15688096
15687896
15687704
15687592
15687608
15687520
15687320
15687200
15687088
15686936
15686872
15686824
15686736
15686600
15686440
15686224
15686096
15686232
15686552
15686800
15687064
15687400
15687440
15687456
15687456
15687480
15687664
15687840
15687992
15688208
15688392
15688424
15688296
15688120
15687888
15687600
15687448
15687352
15687512
15687720
15687832
15687960
15688048
15688168
15688152
15687984
15687912
15687968
15687856
15687616
15687480
15687336
15687264
15687192
15687128
15687120
15687080
15687144
15687328
15687544
15687768
15687960
15688152
15688304
15688416
15688496
15688416
15688264
15688176
15688088
15687912
15687840
15687832
15687792
15687712
15687616
15687536
15687456
15687304
15687216
15687352
15687520
15687784
15688056
15688320
15688568
15688768
15689176
15689648
15690040
15690328
15690608
15690680
15690376
15690160
15690072
15689904
15689904
15689896
15689808
15689752
15689664
15689640
15689744
15690008
15690216
15690232
15690152
15690088
15690064
15689936
15689768
15689520
15689312
15689272
15689200
15689104
15688928
15688752
15688720
15688776
15688792
15688864
15688904
15688824
15688888
15688952
15689000
15689008
15688896
15688840
15688896
15689016
15689312
15689584
15689640
15689768
15690024
15690232
15690384
15690552
15690808
15690872
15690576
15690232
15689968
15689904
15689912
15689888
15689888
15689768
15689632
15689472
15689208
15689072
15688952
15688728
15688744
15688968
15689176
15689232
15689176
15689024
15688864
15688904
15689096
15689152
15689208
15689424
15689616
15689632
15689504
15689280
15688984
15688800
15688728
15688752
15688744
15688752
15688760
15688752
15688672
15688632
15688744
15688808
15688768
15688728
15688696
15688704
15688776
15688984
15689296
15689528
15689616
15689648
15689656
15689592
15689648
15689760
15689888
15690056
15690112
15690056
15690024
15690096
15690136
15690112
15690096
15689912
15689648
15689432
15689336
15689384
15689448
15689528
15689584
15689568
15689488
15689416
15689296
15689128
15688864
15688656
15688552
15688456
15688504
15688656
15688824
15689104
15689464
15689632
15689704
15689816
15689912
15690008
15690072
15690024
15689968
15690048
15690160
15690288
15690352
15690384
15690376
15690256
15690016
15689808
15689776
15689728
15689624
15689664
15689944
15690200
15690344
15690312
15690216
15690296
15690392
15690400
15690264
15690040
15689688
15689528
15689600
15689536
15689344
15689088
15688816
15688720
15688688
15688704
15689000
15689064
15689144
15689632
15690040
15690216
15690232
15690160
15690088
15690000
15689976
15690072
15690144
15690136
15690272
15690440
15690576
15690688
15690720
15690648
15690632
15690688
15690792
15690792
15690664
15690672
15690664
15690592
15690400
15690128
15690032
15690048
15690024
15690024
15690056
15690128
15690192
15690184
15690232
15690240
15690296
15690480
15690728
15690864
15690856
15690848
15690776
15690912
15691032
15691032
15691056
15690880
15690640
15690560
15690632
15690840
15690912
15690816
15690792
15690880
15691048
15691128
15691152
15691264
15691496
15691784
15691928
15691920
15691912
15691784
15691512
15691280
15691112
15691032
15691008
15690824
15690448
15689456
15688112
15686920
15685976
15685888
15685864
15685672
15685520
15684904
15684088
15682872
15681552
15680984
15681072
15681864
15682808
15683480
15684424
15685088
15685600
15686160
15686368
15686712
15686840
15686776
15687072
15686928
15685872
15683808
15681480
15680456
15680440
15681072
15682016
15682480
15682936
15682584
15681112
15679400
15678096
15680416
15685512
15688736
15690256
15691128
15691680
15692384
15692616
15692632
15692640
15692520
15692712
15692504
15692216
15692296
15692136
15691856
15691536
15691440
15691472
15691488
15691576
15691552
15691184
15690768
15690088
15688944
15687968
15687392
15687232
15687336
15687560
15687752
15687832
15687904
15687936
15687776
15687856
15688040
15688152
15688512
15688648
15688552
15688520
15688328
15688312
15688352
15688152
15688192
15688296
15688512
15689064
15689648
15690656
15691784
15692416
15692976
15693504
15694224
15695632
15696456
15696720
15697464
15729448
15787240
15835176
15833560
15811088
15798456
15763808
15751616
15741888
15723344
15729224
15718536
15718032
15725920
15711664
15718816
15715400
15708032
15719632
15709416
15712304
15737520
15750840
15752296
15745552
15734480
15722520
15711960
15703656
15697704
15693568
15690952
15689552
15689136
15689144
15689288
15689616
15689816
15689976
15690168
15690320
15690320
15690232
15690312
15690384
15690328
15690328
15690280
15690384
15690408
15690184
15690104
15690208
15690432
15690488
15690464
15690640
15690760
15690888
15691152
15691216
15691184
15691080
15690768
15690448
15690376
15690320
15690168
15690040
15689952
15689920
15689816
15689840
15689944
15689888
15689760
15689776
15689952
15690344
15691072
15691864
15692216
15692576
15692744
15692528
15692584
15692376
15691968
15691568
15690920
15690624
15690456
15690184
15690416
15690672
15691176
15692080
15692840
15693752
15695816
15699112
15701528
15701736
15700640
15699192
15697512
15695504
15693776
15692104
15690376
15689336
15688272
15687440
15686960
15686008
15685064
15684168
15683432
15683216
15683120
15683296
15683432
15683192
15683088
15682984
15683192
15683824
15684560
15685408
15685528
15685592
15695552
15729808
15764568
15765320
15771392
15772840
15757152
15763760
15753208
15746720
15752856
15737576
15743704
15744520
15744424
15970032
16484536
16775872
16774768
16774768
16774768
16774768
16774768
16774768
16774768
16774768
16774768
16774768
16774768
16774768
16774768
16774768
16774768
16774768
16774768
16774768
16774768
16774768
16774768
16774768
16774768
16774768
16774768
16774768
16774768
16774768
16774768
16774768
16774768
16774768
16774768
16774768
16774768
16774768
16774768
16774768
16774768
16774768
16774768
16774768
16774768
16774768
16774768
16774768
16774768
16774768
16774768
16774768
16774768
16774768
16774768
16774768
16774768
16774768
16774768
16774768
16774768
16774768
16774768
16774768
16774768
16774768
16774768
16774768
16774768
16774768
16774768
16774768
16774768
16774768
16774768
16774768
16774768
16774768
16774768
16774768
16774768
16774768
16769944
16764816
16725536
16682640
16642352
16598232
16558784
16523232
16487256
16452704
16421048
16391616
16362760
16333936
16306656
16279464
16253104
16227448
16202696
16178520
16156360
16136264
16118080
16102256
16088064
16075832
16067664
16062448
16059744
16058344
16057352
16056152
16052480
16046352
16038288
16027616
16014952
16000808
15986464
15973088
15961184
15951808
15946376
15927608
15888720
15844480
15803840
15769752
15743440
15723976
15710376
15701048
15695072
15691488
15689616
15688552
15687832
15687352
15686872
15686344
15685848
15685344
15684848
15684096
15683224
15682504
15681800
15681080
15680520
15679936
15679416
15678920
15678480
15678160
15677752
15677312
15677128
15677112
15676952
15676776
15676768
15676832
15676928
15676944
15676720
15676480
15676416
15676432
15676488
15676488
15676384
15676184
15676064
15675952
15675864
15676008
15676168
15676368
15676632
15676656
15676488
15676408
15676312
15676280
15676576
15677040
15677448
15677600
15677480
15677416
15677440
15677544
15677768
15677960
15678280
15678608
15678792
15678960
15679280
15679560
15679512
15679496
15679536
15679560
15679528
15679624
15679792
15679720
15679616
15679688
15679832
15679936
15680336
15680992
15681528
15681848
15682136
15682376
15682920
15683264
15683304
15683576
15683632
15683664
15683600
15683216
15682904
15682928
15683000
15682888
15682864
15682872
15683072
15683528
15683936
15684064
15684096
15684208
15684024
15683840
15683880
15683928
15684312
15684792
15685008
15685184
15685128
15684936
15684816
15684688
15684632
15684712
15684856
15685080
15685352
15685576
15685976
15686416
15686704
15687056
15687312
15687416
15687344
15687088
15687256
15687384
15687208
15687400
15687544
15687864
15688352
15688696
15689264
15689536
15696712
15685512
15685448
15699992
15694872
15710136
15712016
15708272
15720504
15709432
15712312
15714456
15702248
15712344
15704976
15702664
15711776
15699296
15706672
15705712
15697752
15709688
15700624
15703976
15710632
15700160
15711232
15705936
15700464
15708488
15696064
15658568
15602568
15576728
15591984
15621744
15647120
15661456
15670824
15678008
15683056
15686352
15688384
15689448
15689800
15689824
15689624
15689248
15688840
15688408
15688000
15687712
15687488
15687224
15687088
15687136
15687200
15687280
15687304
15687264
15687272
15687336
15687416
15687432
15687480
15687552
15687512
15687472
15687376
15687304
15687440
15687544
15687680
15687808
15687816
15687728
15687608
15687512
15687288
15686944
15686664
15686472
15686352
15686280
15686336
15686712
15687056
15687288
15687512
15687616
15687712
15687872
15687840
15687688
15687472
15687168
15686936
15686864
15686976
15687168
15687408
15687576
15687800
15687952
15687984
15688008
15688016
15688000
15687856
15687696
15687512
15687352
15687280
15687288
15687272
15687296
15687464
15687584
15687736
15687904
15687920
15688096
15688304
15688408
15688624
15688784
15688824
15688752
15688608
15688464
15688480
15688496
15688408
15688368
15688400
15688368
15688368
15688432
15688464
15688552
15688560
15688504
15688456
15688456
15688464
15688360
15688296
15688208
15687936
15687752
15687792
15687904
15687952
15687824
15687680
15687696
15687840
15687960
15687992
15688104
15688200
15688112
15688136
15688128
15688008
15688048
15688056
15687856
15687744
15687784
15687688
15687544
15687376
15687312
15687344
15687312
15687336
15687288
15687144
15686952
15686808
15687016
15687296
15687376
15687400
15687264
15687144
15686936
15686720
15686712
15686592
15686576
15686688
15686656
15686712
15686616
15686424
15686552
15686488
15686576
15686872
15686944
15687160
15687256
15687368
15687576
15687568
15687768
15687976
15687888
15687768
15687496
15687376
15687392
15687176
15687136
15687272
15687368
15687408
15687240
15687272
15687368
15687288
15687368
15687384
15687464
15687536
15687200
15687080
15687136
15687096
15687080
15686920
15686888
15686984
15686984
15686912
15686744
15686792
15686928
15686848
15686712
15686680
15686736
15686824
15686912
15687096
15687232
15687168
15687176
15687016
15686824
15686848
15686752
15686696
15686696
15686656
15686760
15686840
15686952
15687288
15687376
15687280
15687352
15687464
15687656
15687720
15687728
15687696
15687448
15687272
15687056
15686880
15687032
15687160
15687304
15687344
15687304
15687456
15687320
15687192
15687240
15687056
15687024
15687056
15686952
15686920
15686624
15686568
15686800
15686792
15686784
15686648
15686560
15686536
15686384
15686392
15686448
15686680
15687056
15687304
15687616
15687704
15687448
15687416
15687232
15686952
15686872
15686712
15686704
15686632
15686608
15686808
15686776
15686896
15687144
15687168
15687304
15687360
15687320
15687344
15687312
15687448
15687552
15687472
15687536
15687600
15687824
15687872
15687688
15687776
15687640
15687416
15687280
15686984
15686952
15687024
15687048
15687232
15687256
15687224
15687160
15686960
15686944
15686888
15686808
15687080
15687192
15687224
15687200
15687080
15687320
15687456
15687520
15687784
15687816
15687928
15688080
15688184
15688528
15688504
15688352
15688392
15688272
15688184
15687960
15687776
15687784
15687496
15687328
15687320
15687280
15687488
15687608
15687680
15687728
15687696
15687856
15687984
15688008
15688096
15688032
15688000
15687832
15687336
15687008
15686872
15686816
15686912
15686904
15687024
15687184
15687232
15687328
15687152
15686904
15686856
15686712
15686640
15686840
15687000
15687224
15687304
15687368
15687368
15687080
15686904
15686600
15686408
15686480
15686456
15686688
15686888
15686776
15686832
15686968
15687280
15687560
15687656
15687904
15687936
15687840
15687816
15687600
15687536
15687488
15687336
15687432
15687616
15687888
15688080
15688072
15687984
15687792
15687568
15687544
15687424
15687224
15687120
15687056
15687224
15687208
15687128
15687136
15687032
15687032
15686864
15686632
15686664
15686592
15686552
15686744
15686920
15687088
15687184
15687328
15687568
15687512
15687408
15687272
15687008
15686952
15686768
15686496
15686392
15686192
15686040
15685984
15685896
15686000
15686136
15686296
15686568
15686912
15687464
15687976
15688368
15688624
15688440
15688200
15687984
15687704
15687488
15687112
15686824
15686640
15686536
15686672
15686736
15686656
15686648
15686632
15686616
15686520
15686600
15686832
15686936
15687056
15687192
15687320
15687456
15687560
15687648
15687888
15688128
15688280
15688272
15688056
15687784
15687408
15687232
15687192
15687000
15686832
15686664
15686480
15686592
15686592
15686272
15686216
15686328
15686200
15686008
15685768
15685176
15684880
15685304
15685960
15686784
15687232
15687288
15687544
15687800
15687904
15687824
15687656
15687512
15687384
15687240
15687200
15687304
15687368
15687320
15687144
15686792
15686520
15686576
15686528
15686424
15686472
15686456
15686408
15686448
15686520
15686520
15686576
15686712
15686800
15686688
15686688
15686856
15686824
15686624
15686528
15686496
15686608
15686792
15686880
15687088
15687352
15687584
15687768
15687720
15687704
15687856
15688056
15688288
15688512
15688704
15688768
15688656
15688472
15688456
15688480
15688392
15688360
15688432
15688424
15688360
15688288
15688296
15688256
15688232
15688256
15688112
15688008
15688120
15688304
15688384
15688192
15687928
15687776
15687640
15687680
15687704
15687752
15688016
15688312
15688600
15688744
15688640
15688464
15688200
15687960
15687824
15687776
15687664
15687392
15687192
15687168
15687248
15687264
15687240
15687224
15687256
15687248
15687272
15687296
15687088
15687056
15687312
15687416
15687456
15687528
15687568
15687560
15687576
15687600
15687440
15687312
15687376
15687400
15687480
15687528
15687496
15687528
15687512
15687328
15687088
15686960
15686944
15686944
15686920
15686800
15686592
15686616
15686728
15686912
15687104
15687200
15687192
15687000
15686456
15685328
15684216
15683752
15684128
15684808
15685536
15686240
15686648
15686968
15687248
15687424
15687496
15687496
15687536
15687680
15687712
15687656
15687672
15687952
15688352
15688768
15689408
15689704
15689536
15689360
15689048
15688888
15688984
15688944
15689040
15689320
15689360
15688960
15688408
15688040
15687776
15687496
15687328
15687240
15687264
15687376
15687320
15687472
15687960
15688728
15689824
15690464
15690560
15690272
15689800
15689504
15689008
15688784
15688856
15688672
15688592
15688400
15688208
15688264
15688144
15688296
15688880
15689616
15690480
15690832
15690944
15691104
15690768
15690552
15690384
15690080
15689928
15689552
15689088
15688408
15687728
15687768
15687872
15687920
15688152
15688112
15688240
15688440
15688424
15688416
15688624
15689520
15690280
15690088
15689616
15688984
15688472
15688136
15687648
15687472
15687432
15687424
15687624
15687424
15687264
15687328
15687240
15687328
15687336
15687408
15687704
15687824
15687952
15688080
15688144
15688584
15689440
15690848
15691992
15692632
15693392
15692416
15689848
15687376
15683960
15681128
15680584
15681296
15682504
15683504
15684080
15684488
15685224
15685632
15686024
15686384
15686248
15686504
15686800
15687072
15687944
15688888
15690080
15691184
15691232
15690984
15690264
15689576
15689176
15688432
15688320
15688560
15688848
15689216
15689296
15688656
15687912
15687880
15687824
15688336
15689152
15689504
15690016
15689936
15689872
15690152
15689768
15688760
15687456
15686672
15686416
15686368
15686400
15686336
15686376
15686936
15687704
15688664
15689552
15690072
15690504
15690568
15690256
15689968
15689648
15689288
15689016
15688680
15688568
15688496
15688392
15688392
15688400
15688640
15688816
15688680
15688416
15688096
15687776
15687488
15687280
15687096
15686912
15686352
15685760
15685640
15685616
15685656
15685744
15685728
15685792
15685864
15685872
15685936
15685808
15685928
15686136
15685920
15685944
15685920
15685896
15686072
15686112
15686224
15686064
15685840
15685936
15685864
15685632
15685280
15684968
15685056
15685152
15685272
15685480
15685440
15685520
15685576
15685440
15685496
15685536
15685464
15685344
15685072
15685000
15684944
15684640
15684480
15684376
15684232
15684144
15684280
15684600
15685120
15685720
15686168
15686536
15686784
15686928
15686960
15686928
15687000
15687168
15687504
15688080
15688688
15689176
15689336
15689016
15688216
15687264
15686152
15684968
15684168
15683608
15683144
15683144
15683416
15683768
15684272
15684800
15685456
15685880
15686400
15686952
15686936
15686984
15686976
15686896
15687072
15687000
15686984
15687168
15686712
15685112
15683888
15684008
15684208
15684392
15684480
15684528
15684880
15684976
15685136
15685312
15685312
15685528
15685528
15685448
15685416
15685016
15684912
15684992
15685144
15685496
15685504
15685552
15685504
15685096
15684840
15684432
15683768
15683216
15682656
15682552
15680928
15698552
15699168
15688096
15683224
15646712
15643848
15617376
15589464
15618152
15576080
15652480
16119688
16622800
16775152
16774768
16774768
16774768
16774768
16774768
16774768
16774768
16774768
16774768
16774768
16774768
16774768
16774768
16774768
16774768
16774768
16774768
16774768
16774768
16774768
16774768
16774768
16774768
16774768
16774768
16774768
16774768
16774768
16774768
16774768
16774768
16774768
16774768
16774768
16774768
16774768
16774768
16774768
16774768
16774768
16774768
16774768
16774768
16774768
16774768
16774768
16774768
16774768
16759072
16740776
16699392
16660144
16628712
16599008
16570768
16542424
16515400
16487080
16458512
16430256
16403584
16379176
16357320
16334824
16313280
16293136
16272992
16253536
16234128
16214952
16196720
16178488
16160160
16141808
16124144
16107120
16091448
16077064
16064232
16051920
16041152
16031600
16023216
16017192
16012784
16008664
16004536
15999648
15994600
15989416
15984048
15979592
15975792
15973128
15971120
15969024
15967304
15965216
15962472
15959040
15954768
15949880
15944496
15937888
15930456
15922336
15914200
15906712
15900032
15894216
15888912
15883704
15879200
15875008
15871008
15866536
15860440
15853064
15845184
15837376
15831224
15827240
15825432
15824600
15823344
15821296
15818504
15816504
15816184
15816864
15818072
15818400
15817208
15814504
15810328
15805856
15801728
15798192
15795752
15793696
15792048
15790952
15790328
15790576
15790416
15789072
15786496
15782072
15777240
15772832
15768768
15765624
15763176
15761296
15760536
15760816
15762672
15766184
15771312
15778104
15785040
15791352
15796224
15798792
15799584
15798896
15797432
15796296
15795400
15795200
15795824
15796984
15798952
15801160
15803096
15804384
15804384
15803344
15801056
15797552
15793656
15789544
15785952
15782920
15780616
15779464
15778736
15778224
15778496
15779256
15780000
15779696
15777712
15774488
15770568
15767208
15765544
15765992
15769056
15774056
15780352
15787800
15795008
15801560
15807168
15812744
15819456
15827568
15837752
15850888
15865760
15881848
15899448
15915192
15909904
15876512
15832712
15790424
15755336
15728576
15710096
15698184
15691448
15688288
15687240
15687376
15688144
15689120
15690144
15690968
15691384
15691520
15691560
15691480
15691304
15691280
15691304
15691272
15691200
15690856
15690424
15690096
15689784
15689408
15689272
15689328
15689200
15688904
15688648
15688416
15688208
15688016
15687896
15687904
15687904
15688048
15688120
15688096
15688248
15688368
15688480
15688752
15688856
15688800
15688880
15688920
15688952
15688912
15688736
15688640
15688792
15689032
15689048
15689048
15689152
15689152
15689184
15689200
15689104
15689008
15688912
15688800
15688752
15688504
15688160
15688048
15688024
15688104
15688208
15688248
15688384
15688568
15688640
15688640
15688616
15688552
15688648
15688728
15688608
15688360
15688160
15688128
15688120
15688288
15688528
15688616
15688584
15688360
15688192
15688064
15687552
15687056
15687016
15687024
15687032
15687088
15687144
15687312
15687472
15687544
15687704
15687968
15688032
15688000
15687760
15687464
15687592
15687944
15688184
15688408
15688504
15688248
15687984
15687928
15687904
15687472
15686928
15686848
15687000
15687064
15687176
15687504
15687912
15688272
15688520
15688616
15688584
15688576
15688584
15688440
15688832
15689664
15690352
15690616
15690264
15690120
15690152
15690112
15690208
15689968
15689424
15688816
15687984
15687272
15686648
15685744
15684976
15679816
15703688
15812264
15980912
16151296
16291504
16392144
16451368
16474816
16472488
16453704
16426000
16395232
16362208
16327616
16292696
16257856
16223632
16183704
16127600
16066296
16018536
15982912
15956784
15933472
15908288
15881544
15857480
15832664
15803680
15770696
15730880
15677544
15539008
15296336
15019920
14734144
14455800
14203696
13979472
13770288
13584856
13440776
13310176
13153472
12977288
12803488
12643200
12492304
12341048
12206752
12106648
12029232
11981864
11977408
12007344
12053488
12098000
12134192
12149056
12127152
12078216
12020320
11960424
11905824
11872096
11878488
11937032
12040088
12155232
12239400
12281832
12312304
12361808
12442456
12543624
12652968
12763712
12857048
12907104
12904912
12878560
12883704
12960448
13117104
13330160
13562544
13788872
13979896
14097560
14127264
14094424
14036528
13968424
13901272
13857264
13860016
13929568
14073424
14289672
14584080
14945360
15337184
15625624
15765592
15871384
15993432
16134960
16300392
16485648
16673240
16775912
16774768
16774768
16774768
16774768
16774768
16774768
16774768
16774768
16774768
16774768
16774768
16774768
16774768
16774768
16774768
16774768
16774768
16774768
16774768
16774768
16774768
16774768
16774544
16719936
16659616
16632768
16632536
16648752
16673464
16697704
16727984
16768968
16775136
16775152
16774768
16774768
16774768
16774768
16774768
16774768
16774768
16774768
16774768
16774768
16774768
16758632
16727088
16660856
16589664
16516792
16442488
16374960
16312832
16256536
16206464
16163408
16124944
16089080
16055728
16027056
16003504
15987040
15979248
15980488
15991224
16009296
16031912
16057944
16085624
16112248
16135944
16154072
16167064
16174632
16176640
16173912
16169064
16164368
16160744
16159704
16162760
16171536
16186032
16204768
16226056
16248096
16270072
16291128
16309728
16324320
16336160
16343808
16344920
16338224
16325504
16312608
16304544
16303016
16307312
16315208
16324744
16332240
16335312
16333752
16325880
16311640
16292744
16270152
16245512
16220064
16193568
16170520
16155496
16150520
16155936
16169448
16186440
16200328
16200688
16174216
16116592
16035664
15938160
15835904
15740344
15638440
15500784
15401056
15416416
15521232
15629888
15683744
15707184
15723368
15745832
15790048
15868256
15981920
16114592
16236144
16330784
16379232
16373144
16326608
16257360
16177440
16083184
15963432
15812472
15505512
14932920
14259608
13626120
13091776
12750392
12628960
12702200
12921720
13221448
13539784
13838152
14115968
14384344
14633856
14865640
15072944
15104128
14657224
13454592
11455944
8865624
5961776
3607728
2751808
2748920
2748272
2749064
2775360
3802248
5847400
7541800
8554864
9247560
10132040
11593344
13521128
15171616
15912680
16038880
15954544
15558784
14591792
13544064
13185672
13597672
14612912
15567624
16064608
16384920
16630808
16745832
16775152
16774768
16746312
16711664
16673504
16659248
16675144
16702016
16721152
16721896
16697072
16666088
16662280
16690984
16714552
16685264
16610640
16535160
16495120
16495208
16512024
16521560
16517424
16514808
16527768
16548848
16548056
16507696
16461040
16446144
16464896
16498408
16530128
16550616
16548656
16526128
16496928
16463368
16426024
16384376
16345072
16311960
16285720
16274408
16285464
16311752
16334592
16329424
16255976
16088584
15834608
15149264
13987592
12868632
12004208
11340824
10944208
10896304
11055592
11238368
11414040
11711448
12255304
13061056
14132848
15244136
15893024
16143808
16292352
16346464
16351008
16340176
16313648
16266936
16212648
16165792
16139552
16128528
16118056
16110176
16104744
16093008
16073280
16046320
16026000
16030304
16062984
16111296
16158936
16201032
16236880
16273072
16310880
16337528
16347288
16349600
16353984
16362880
16371320
16375208
16376624
16379592
16388680
16411816
16451816
16508592
16580272
16659328
16727720
16759480
16775704
16774904
16739872
16690168
16634680
16587528
16546728
16504176
16459200
16412048
16365912
16324096
16291104
16269296
16260056
16264864
16282856
16309888
16339704
16366456
16386776
16403856
16425816
16458648
16493328
16521120
16545192
16571792
16598064
16623872
16651384
16675320
16698336
16720072
16724264
16707528
16665616
16592920
16500008
16391760
16271024
16142104
16014560
15893784
15786968
15681944
15471200
15146440
14804656
14448064
14071208
13674960
13272088
12888600
12558544
12308656
12147000
12054760
11996920
11937832
11852920
11732968
11588792
11442392
11312944
11200176
11093496
10996352
10931416
10916800
10946088
10993256
11030232
11040168
11017928
10962232
10870400
10741896
10580368
10392808
10196248
10018232
9889480
9828944
9835088
9893848
9989888
10107488
10231728
10349496
10449280
10522664
10569936
10608784
10661608
10736584
10829712
10939384
11067184
11214016
11379000
11563616
11765896
11976208
12180240
12367080
12534864
12689032
12830512
12956336
13064248
13158648
13247760
13337536
13430592
13531520
13648976
13793000
13965464
14157152
14349032
14520584
14659560
14767184
14856160
14946952
15059200
15203704
15376584
15554424
15669736
15725264
15776592
15826064
15871648
15919376
15978544
16057024
16152688
16260056
16372584
16485728
16596872
16696872
16765016
16775032
16774768
16774768
16774768
16774768
16774768
16774768
16774768
16774768
16774768
16774768
16774768
16774768
16774768
16774768
16774768
16774768
16774768
16774768
16774768
16774768
16774768
16774768
16774768
16774768
16774768
16774768
16774768
16774768
16774768
16774768
16774768
16774768
16774768
16774768
16774768
16774768
16774768
16774768
16774768
16774768
16774768
16774768
16774768
16774768
16774768
16774768
16774768
16774768
16774768
16774768
16774768
16774768
16774768
16774768
16774768
16774768
16774768
16774768
16774632
16758392
16690392
16636968
16602040
16569648
16544992
16514912
16473576
16424256
16367304
16304408
16241224
16180432
16125760
16078064
16039416
16010832
15991880
15980288
15973824
15968672
15963504
15958200
15952632
15946344
15939488
15933544
15931000
15934928
15947632
15970312
16003984
16050248
16106528
16169696
16234496
16299512
16361808
16420128
16473232
16516792
16551432
16578424
16595416
16607792
16605616
16573568
16504200
16399424
16278672
16161608
16064672
15992656
15949400
15935512
15959016
16024632
16127224
16260600
16410592
16558928
16685904
16752768
16775768
16774768
16774768
16774768
16774768
16774768
16774768
16774768
16774768
16774768
16774768
16774768
16774768
16774768
16774768
16774768
16774768
16774768
16774768
16774768
16774768
16774768
16774768
16774768
16774768
16774768
16774768
16774768
16774768
16774768
16774768
16774768
16774768
16774768
16774768
16774768
16774768
16774768
16774768
16774768
16774768
16774768
16774768
16774768
16774768
16774768
16774768
16774768
16774768
16774768
16774768
16774768
16774768
16774768
16774768
16774768
16774768
16774768
16774768
16774768
16741464
16647152
16501648
16366784
16242504
16126832
16022976
15926832
15835472
15743040
15576320
15240528
14791424
14303736
13776760
13205720
12587296
11928712
11257920
10603088
9980432
9395128
8855040
8370568
7954824
7609448
7326744
7099184
6928864
6820568
6775624
6790720
6860824
6981288
7152008
7378648
7662704
7986912
8305456
8562792
8715824
8748400
8660520
8463712
8191552
7892872
7616432
7390656
7216832
7064520
6862904
6573832
6229048
5878568
5563912
5299568
5086296
4912208
4769312
4655168
4572136
4527624
4529952
4587376
4700544
4868392
5097008
5402312
5807832
6335472
6986728
7736552
8530632
9295648
9939768
10399832
10674096
10796896
10845680
10925424
11070024
11244680
11394832
11485416
11525040
11532464
11540128
11588544
11683992
11797624
11903064
12016696
12165632
12361856
12616384
12931304
13278504
13598696
13852072
14040792
14141216
14146056
14124480
14105184
14039792
13881048
13660232
13461640
13291072
13119096
12968416
12865552
12804808
12775360
12793264
12891328
13070592
13316416
13615280
13928520
14208816
14415592
14511352
14487312
14379592
14260088
14196128
14222424
14338000
14490344
14607736
14635224
14540640
14344368
14103808
13858112
13633920
13474488
13444272
13597712
13949312
14469664
15070392
15542680
15754008
15826384
15867808
15882752
15871256
15842128
15812400
15805320
15833832
15885232
15936640
15962592
15943976
15882000
15791168
15668336
15409904
15060048
14783080
14594608
14476416
14408704
14362208
14331928
14334608
14382264
14488336
14643440
14826776
15010088
15159208
15266872
15340544
15411040
15518352
15631368
15712000
15785112
15866648
15952016
16030008
16094832
16143240
16175256
16196384
16213496
16231176
16252728
16274216
16292256
16303160
16302152
16289688
16265584
16233936
16202472
16175032
16154560
16138608
16118328
16087224
16039400
15977768
15908368
15838696
15774736
15718784
15661736
15555176
15400432
15258176
15143544
15061680
15020136
15001824
14988976
14965856
14911520
14827304
14714096
14580464
14447312
14327304
14242328
14204944
14211976
14264832
14346808
14440248
14531000
14593824
14624488
14625664
14608120
14598296
14606480
14642832
14709960
14782864
14827552
14806440
14709440
14551984
14348888
14122272
13866024
13553072
13205680
12863376
12532792
12210344
11878896
11513312
11081856
10576008
10015576
9418096
8799600
8157888
7457624
6685416
5844088
4959120
4055080
3199728
2775040
2751400
2750312
2749328
2748552
2747952
2747504
2747256
2747328
2747664
2748080
2748672
2749368
2749976
2750496
2750944
2751176
2751360
2751464
2751488
2751384
2751168
2750872
2750392
2749960
2749536
2749200
2749080
2749176
2749376
2749720
2750272
2751032
2752096
2759440
3018400
3608384
4298568
5025488
5804176
6646008
7543816
8519904
9598800
10802416
12130952
13559912
14967080
15835248
16195312
16517000
16730296
16775032
16774768
16774768
16774768
16774768
16774768
16774768
16774768
16774768
16774768
16774768
16774768
16774768
16774768
16774768
16774768
16774768
16774768
16774768
16774768
16774768
16774768
16774768
16774768
16774768
16774768
16774768
16774768
16774768
16695696
16551416
16397408
16246200
16086504
15911288
15665552
15042280
14101360
13149832
12210976
11297808
10410808
9592120
8887264
8292944
7828448
7467864
7130680
6803904
6558648
6470928
6546816
6786312
7216224
7822952
8577896
9409232
10242704
11088584
11972032
12912624
13915072
14966216
15692048
16003264
16222248
16402552
16537088
16641176
16719616
16756088
16775264
16774768
16774768
16774768
16774768
16774768
16774768
16774768
16774768
16774768
16774768
16774768
16774768
16774768
16774768
16774768
16774768
16774768
16774768
16774768
16774768
16774768
16774768
16774768
16774768
16774768
16774768
16774768
16774768
16774768
16774768
16774768
16774768
16774768
16774768
16774768
16774768
16774768
16774768
16774768
16774768
16774768
16774768
16774768
16774768
16759576
16672664
16588016
16555376
16558640
16571744
16578000
16579608
16579824
16580744
16581208
16582336
16588304
16593128
16591832
16582752
16567552
16550288
16529264
16508040
16484576
16460720
16439272
16418472
16398688
16380368
16359744
16338816
16318800
16299120
16282184
16265592
16248616
16232664
16216504
16201016
16185408
16170600
16157536
16146088
16135576
16125024
16114544
16104712
16095480
16086928
16078784
16070640
16062072
16053704
16045544
16037968
16030984
16024376
16018456
16012904
16007192
16001600
15995584
15989424
15983640
15978264
15972832
15967144
15961496
15956368
15951456
15946824
15942544
15938392
15934440
15930816
15927392
15924112
15920856
15918008
15915312
15912576
15909840
15907744
15906200
15898920
15874976
15829288
15771056
15713312
15633000
15513472
15446224
15520344
15643608
15720952
15758408
15752608
15709472
15613816
15426984
15223224
15076608
14963816
14868528
14764088
14618352
14430488
14218944
14010400
13813904
13619088
13436872
13307016
13287080
13424072
13741240
14283056
14990640
15547192
15799680
15920984
16014096
16074520
16109144
16126392
16135312
16141520
16145520
16147232
16147344
16146592
16144616
16140856
16135312
16128136
16120688
16113080
16105400
16097912
16089992
16082424
16074936
16067200
16059416
16051568
16043456
16035784
16028664
16021960
16015304
16008600
16001864
15995336
15989152
15983528
15977904
15972560
15967376
15962328
15957696
15952944
15948072
15943680
15939648
15936088
15932464
15928160
15923368
15918632
15914312
15910368
15905696
15899160
15890720
15881320
15869896
15855776
15839112
15821112
15804272
15791936
15785888
15787000
15794008
15805768
15821952
15839872
15858704
15881512
15909168
15937056
15961736
15980400
15992760
15999760
16003208
16004336
16004264
16004208
16004224
16004520
16005320
16005856
16005840
16005152
16004160
16002584
15996480
15978136
15938744
15877872
15804152
15732912
15673672
15612968
15575944
15598288
15641624
15671904
15693608
15713464
15731888
15748608
15764224
15778328
15790408
15799088
15803328
15804472
15804368
15803688
15801744
15797416
15790304
15780392
15767952
15755264
15744856
15739672
15740624
15741392
15733304
15713936
15684920
15627176
15509808
15366168
15240664
15121344
14978688
14794664
14597376
14439472
14328440
14229344
14102520
13918408
13662672
13335600
12948200
12521704
12074456
11621632
11182664
10785080
10456264
10217832
10070680
9996648
9970152
9971368
9983912
9995600
10003968
10015896
10052608
10134376
10258656
10407384
10559928
10704584
10848264
11000816
11166608
11337584
11490384
11608168
11692336
11733656
11713552
11598928
11338136
10900616
10280656
9497824
8571384
7476936
6179008
4709072
3352856
2759840
2749840
2747952
2746216
2744408
2742776
2741112
2739624
2738448
2737600
2736992
2736688
2736696
2736992
2737688
2739056
2741400
2744544
2753960
4335936
8561120
13483488
16248440
16755960
16774768
16774768
16774768
16774768
16774768
16774768
16774768
16774768
16774768
16774768
16774768
16774768
16774768
16774768
16774768
16774768
16774768
16774768
16774768
16774768
16774768
16774768
16774768
16774768
16774768
16774768
16774768
16774768
16774768
16774768
16774768
16774768
16774768
16774768
16774768
16774768
16774768
16774768
16774768
16774768
16774768
16774768
16774768
16774768
16774768
16774768
16774768
16774768
16774768
16774768
16774768
16774768
16774768
16774768
16774768
16774768
16774768
16774768
16754008
16733552
16700320
16667312
16637640
16609040
16583232
16556440
16530896
16510344
16491256
16474080
16458680
16442488
16426416
16406032
16382808
16358248
16329560
16298224
16270112
16245496
16224056
16204576
16188256
16176088
16167712
16163248
16162968
16165960
16169208
16170392
16168712
16162752
16152904
16140440
16127008
16113720
16100576
16086376
16071872
16057624
16044424
16032680
16022128
16012432
16003776
15995760
15988232
15980496
15972680
15964872
15957016
15949488
15941944
15932920
15922864
15911936
15901104
15891192
15882096
15874120
15867624
15862824
15861192
15862528
15863360
15851144
15784024
15285560
13718952
10671000
6262320
3259936
2746472
2742200
2738584
2735976
2734048
2732616
2731624
2731008
2730624
2730520
2730480
2730544
2730752
2730800
2730776
2730720
2730776
2730848
2730792
2730736
2730648
2730656
2730648
2730552
2730504
2730440
2730352
2730400
2730424
2730360
2730448
2730424
2730336
2730304
2730312
2730328
2730320
2730336
2730256
2730256
2730304
2730360
2730360
2730264
2730176
2730152
2730152
2730128
2730160
2730200
2730192
2730160
2730184
2730200
2730120
2730152
2730232
2730240
2730200
2730032
2729888
2730120
2730848
2731896
2732832
2733176
2732912
2732336
2731744
2731368
2731568
2732552
2734184
2736096
2738200
2740016
2741472
2742536
2743440
2744136
2744736
2745032
2745208
2745520
2745888
2746440
2747320
2748576
2750272
2780624
3428376
4745600
6077912
7278856
8297008
9056328
9488856
9554984
9251048
8632688
7805264
6834080
5751368
4652896
3759544
3320816
3467304
4179784
5332528
6765112
8330968
9881392
11269696
12400672
13189136
13616360
13776536
13834640
13962480
14262728
14736960
15308496
15701704
15865784
15979208
16059416
16118424
16179288
16260296
16372736
16515408
16670296
16767784
16774904
16774768
16774768
16774768
16774768
16760408
16694736
16575608
16499656
16487752
16544640
16667840
16753072
16775264
16774768
16774768
16774768
16774768
16774768
16774768
16774768
16753832
16569800
16252624
16027728
15925168
15939016
16038344
16181360
16321880
16426384
16475480
16472312
16429768
16366480
16302704
16248432
16209480
16187088
16180728
16186544
16200272
16217144
16230784
16235520
16227328
16204800
16165480
16102360
16015608
15913024
15809352
15711392
15550552
15348768
15253584
15306160
15465856
15627032
15723104
15793104
15860896
15921848
15969496
16001560
16016472
16016408
16006024
15987912
15962976
15932616
15902504
15876912
15856504
15838656
15821304
15803104
15784144
15764168
15743792
15722784
15702384
15683368
15665520
15637344
15580968
15502760
15422776
15350744
15290976
15248160
15224560
15217216
15218096
15218504
15217120
15222296
15246056
15291040
15348856
15404560
15439264
15440008
15404480
15340496
15264296
15191816
15137672
15114176
15122352
15147328
15167848
15175944
15172424
15149648
15098560
15030776
14976712
14964072
15008536
15111024
15258048
15420112
15560592
15641464
15667280
15671976
15665024
15635336
15560128
15454112
15359576
15301360
15284216
15301496
15337440
15369048
15383424
15380176
15363976
15342744
15328496
15331056
15351712
15382424
15412560
15434240
15448160
15463056
15489384
15533816
15589080
15634152
15656064
15663968
15668936
15673352
15678464
15683920
15688208
15690608
15690472
15687456
15683064
15679512
15678352
15680400
15684000
15684864
15682120
15680760
15685536
15695928
15710144
15729912
15756216
15788712
15824280
15858944
15887584
15907832
15918168
15919656
15914032
15902264
15885832
15866912
15848616
15831904
15816600
15800784
15783360
15763976
15743440
15723120
15705944
15692928
15684784
15680016
15675264
15667808
15656024
15625392
15561056
15474568
15387304
15315624
15268904
15249600
15251976
15266560
15286352
15307792
15328696
15342120
15341888
15328808
15306656
15279824
15255016
15239616
15238640
15251288
15267016
15271144
15262104
15250536
15243072
15244552
15268792
15329808
15425728
15540864
15633504
15682000
15712888
15741728
15765240
15780880
15786576
15781592
15767648
15747904
15726256
15704792
15684992
15667960
15654272
15642048
15632688
15630864
15635744
15642720
15647400
15647944
15641304
15622144
15589288
15545512
15498664
15458216
15429456
15414792
15411192
15413480
15419072
15424456
15425824
15420840
15409768
15395504
15381672
15370536
15361128
15351200
15339536
15327856
15318424
15304752
15272112
15217672
15159880
15121848
15114600
15146792
15230704
15365368
15528048
15647200
15702792
15741528
15774224
15799040
15813888
15818376
15811520
15793984
15769480
15743016
15719936
15701704
15689032
15681904
15679488
15678992
15677392
15673720
15667952
15660984
15654416
15648936
15642344
15636848
15634032
15633848
15636160
15638560
15638000
15631400
15620144
15607272
15598208
15597032
15604568
15618896
15632888
15641272
15642640
15637600
15625384
15608416
15594528
15590624
15599128
15616464
15631888
15630744
15604144
15558792
15509768
15469680
15459544
15504424
15597424
15674760
15721120
15766272
15806400
15839016
15861480
15871904
15868920
15852408
15825744
15794688
15765808
15743352
15729192
15722232
15720480
15720688
15720024
15716712
15710168
15701328
15692496
15685776
15681992
15679968
15678280
15675920
15672720
15668680
15663920
15659208
15655600
15653552
15653648
15655088
15656736
15657880
15657744
15656416
15654288
15652192
15650832
15649824
15647472
15644152
15637096
15624048
15604696
15574224
15529760
15480728
15442952
15423168
15427224
15472656
15565032
15650040
15698664
15738736
15776720
15810072
15835872
15852352
15857640
15851744
15836400
15814904
15792112
15771176
15754784
15744416
15740024
15739872
15741504
15742568
15741992
15739528
15735968
15731960
15727744
15723824
15720680
15718824
15718920
15720744
15723528
15726496
15729400
15732976
15737128
15741008
15744408
15747416
15750424
15753560
15756232
15758128
15759176
15760688
15764000
15769392
15775440
15780016
15782024
15779960
15770944
15755816
15740456
15729872
15725656
15727768
15738568
15760232
15791800
15831352
15873832
15913688
15944896
15964744
15971128
15965312
15950608
15930928
15910952
15892904
15877536
15864528
15855528
15850712
15848488
15846096
15840720
15832504
15823944
15816712
15811712
15807936
15803256
15796760
15788952
15780032
15769768
15757440
15743784
15729072
15714864
15702224
15691904
15683960
15677608
15671032
15662704
15649448
15620664
15577304
15531632
15490760
15459920
15441232
15425128
15395320
15352864
15317000
15302048
15309944
15343944
15413152
15521480
15628056
15693224
15737320
15777784
15810808
15832368
15841168
15837664
15823960
15804344
15782464
15760888
15740832
15723976
15712144
15706544
15705640
15706456
15706496
15704952
15702104
15698816
15694632
15687336
15675848
15660736
15633280
15592032
15556176
15538776
15539288
15550736
15562128
15564208
15551808
15522096
15476088
15422168
15373936
15340824
15325120
15324640
15335832
15354368
15376312
15398016
15407808
15393464
15361000
15326808
15301256
15297312
15338568
15439296
15575464
15672496
15721952
15766448
15806104
15836984
15856992
15864640
15860216
15845160
15821888
15794576
15767488
15744920
15729384
15722472
15722080
15724544
15726784
15727136
15724968
15720304
15714024
15707144
15699816
15692648
15686504
15682288
15680080
15679296
15679104
15678536
15676944
15675264
15674448
15674096
15673296
15671872
15670712
15670888
15673048
15676848
15680888
15683784
15684624
15682664
15676872
15665312
15636056
15577864
15513744
15471288
15463072
15504976
15592704
15668336
15714496
15760488
15805480
15844168
15873064
15888312
15888912
15876008
15853376
15827024
15801912
15782224
15769088
15762296
15759920
15759280
15757664
15753592
15747080
15739880
15733344
15727864
15722880
15717264
15710616
15703952
15698088
15693880
15690872
15688696
15686816
15685000
15683952
15683440
15682720
15681504
15679360
15676224
15672552
15669152
15666368
15664096
15662496
15661304
15659704
15656520
15646048
15615264
15573176
15544984
15542152
15573880
15630008
15678408
15718328
15763232
15810400
15854080
15890144
15914992
15927344
15927488
15918104
15903512
15888480
15877080
15871336
15871864
15878328
15888280
15898024
15904768
15908528
15910800
15911944
15912704
15913808
15914752
15914736
15913984
15913352
15912392
15910224
15905800
15897912
15886968
15875032
15864296
15855168
15847632
15840912
15835128
15830648
15826824
15822232
15815984
15808160
15799720
15791680
15785624
15780880
15773704
15762080
15749728
15741424
15738912
15742936
15756032
15779368
15810248
15845600
15881264
15913400
15937200
15950296
15951888
15943280
15927760
15908848
15889688
15872128
15856872
15843280
15831688
15821368
15810512
15796992
15781464
15766112
15754048
15746784
15743864
15742848
15741600
15739184
15734640
15726288
15713952
15698744
15683192
15669488
15659584
15653848
15651384
15651512
15652896
15654120
15654576
15653208
15648056
15636272
15614808
15586808
15558984
15534432
15507464
15466912
15415144
15367000
15330680
15317704
15347768
15431080
15556192
15655728
15706928
15748200
15783576
15810576
15826264
15829512
15820712
15802352
15778816
15754360
15733792
15718832
15709680
15705552
15704392
15702488
15697520
15688984
15677936
15666704
15657784
15652624
15651304
15653144
15656512
15658640
15658344
15655448
15648832
15637024
15621376
15610280
15610064
15619440
15632768
15643784
15650320
15654376
15657984
15660808
15661976
15659968
15654440
15644696
15626608
15597896
15560312
15523072
15496208
15487240
15514728
15588688
15660848
15707624
15752712
15797096
15835432
15864136
15881096
15886744
15882448
15870600
15853512
15833816
15814984
15798256
15785488
15777984
15775368
15774752
15772920
15768584
15762256
15755344
15749296
15744672
15741712
15739840
15738264
15736312
15733528
15729880
15725360
15720240
15714800
15709360
15705680
15704536
15705792
15708304
15710328
15711104
15710272
15707864
15704520
15700456
15695872
15691032
15686008
15681248
15677336
15673000
15666592
15658256
15648592
15640608
15644168
15661552
15688808
15725032
15766312
15809528
15850184
15884544
15907936
15918616
15916248
15902896
15882688
15859928
15839344
15823800
15814512
15811032
15811912
15814024
15813896
15808320
15796584
15780696
15765216
15754488
15750936
15754224
15762016
15771056
15778080
15780344
15776408
15766920
15753904
15740032
15729312
15724296
15725736
15733368
15745584
15759544
15771400
15778856
15780568
15776856
15769320
15759008
15748016
15738768
15732960
15731968
15735048
15737552
15736152
15732248
15729336
15729808
15737136
15754880
15782904
15819824
15861528
15903392
15939208
15965400
15979616
15982352
15974936
15959896
15940992
15921920
15907336
15898128
15892216
15887328
15881744
15873296
15860552
15843888
15826384
15811480
15801400
15796040
15794312
15794128
15793680
15791488
15786920
15778952
15767520
15753512
15738704
15724984
15713728
15705216
15699752
15696696
15695688
15695776
15695304
15692248
15684912
15673688
15661016
15646512
15629912
15619632
15620872
15630544
15640512
15642368
15622520
15574688
15518088
15472960
15454568
15479864
15553544
15635832
15690712
15733600
15776672
15815240
15843512
15858336
15858192
15844776
15822336
15795656
15770280
15750016
15737016
15730768
15729952
15732264
15733888
15731024
15722536
15709384
15694624
15681288
15672296
15668904
15670216
15674288
15679024
15682512
15683048
15679400
15671472
15660480
15643784
15620224
15601400
15599248
15614440
15637336
15654528
15664320
15670624
15672696
15670184
15664272
15656688
15646248
15630120
15614616
15607856
15610688
15617344
15616440
15603464
15586576
15575352
15580496
15614720
15657488
15692648
15731096
15772144
15812776
15848456
15876440
15894352
15901240
15897296
15884168
15864328
15840864
15818408
15800352
15789008
15783936
15782856
15782256
15778696
15770952
15761168
15752096
15745992
15743504
15744088
15746608
15749144
15750160
15749056
15745440
15739600
15732064
15724208
15717232
15711920
15709128
15709104
15711488
15715544
15719640
15722512
15723728
15723168
15721352
15718800
15715936
15712664
15708584
15704832
15702272
15701376
15702088
15703296
15704096
15704384
15704256
15702712
15697632
15689888
15682424
15676864
15676320
15685512
15706752
15738296
15777000
15818080
15857600
15890224
15912752
15922352
15918888
15905336
15885840
15865592
15848688
15837544
15831744
15828816
15826200
15822792
15816456
15806152
15792832
15779040
15768048
15762576
15763448
15769776
15779464
15789928
15798720
15803616
15803424
15797768
15788024
15776992
15766808
15760280
15759088
15763040
15771216
15781328
15790296
15796016
15798560
15798928
15798296
15797208
15795400
15792528
15789040
15785712
15783264
15782752
15783776
15785080
15786088
15786432
15786112
15785640
15784392
15779488
15770144
15760896
15756184
15757024
15763600
15777080
15799264
15829864
15867032
15906496
15943408
15971728
15988160
15991400
15984000
15970528
15955248
15942768
15935272
15932816
15933384
15933280
15930384
15923728
15912176
15896896
15879320
15862664
15850752
15845232
15845896
15851224
15858248
15864480
15868632
15869592
15866504
15859912
15851192
15841936
15834720
15834128
15841520
15853528
15865552
15873560
15877512
15879664
15882648
15887928
15895168
15901928
15905112
15902656
15893640
15878176
15857760
15834664
15810296
15787720
15769912
15758568
15751648
15748032
15748440
15751632
15756112
15763752
15777240
15797432
15824144
15855416
15889768
15923280
15953272
15977600
15995488
16005928
16010416
16011568
16010728
16009400
16009456
16010744
16013800
16020600
16030408
16040504
16049520
16057464
16064888
16071648
16078120
16084952
16092920
16102720
16114832
16128880
16143480
16157880
16172872
16187536
16201784
16214712
16226320
16237776
16250928
16266128
16284528
16306488
16331520
16357728
16383216
16408656
16432576
16453816
16477608
16502280
16528248
16555240
16580976
16606192
16638296
16674136
16710384
16747160
16762744
16775152
16774768
16774768
16774768
16774768
16774768
16774768
16774768
16774768
16774768
16774768
16774768
16774768
16774768
16774768
16774768
16774768
16774768
16774768
16774768
16774768
16774768
16774768
16774768
16774768
16774768
16774768
16774768
16774768
16774768
16774768
16774768
16774768
16774768
16774768
16774768
16774768
16774768
16774768
16774768
16774768
16774768
16774768
16774768
16774768
16774768
16774768
16774768
16774768
16774768
16774768
16774768
16774768
16774768
16774768
16774768
16774768
16774768
16774768
16774768
16774768
16774768
16774768
16774768
16774768
16774768
16774768
16774768
16774768
16774768
16774768
16774768
16774768
16774768
16774768
16774768
16774768
16774768
16774768
16774768
16774768
16774768
16774768
16774768
16774768
16774768
16774768
16774768
16774768
16774768
16774768
16774768
16774768
16774768
16774768
16774768
16774768
16774768
16774768
16774768
16774768
16774768
16774768
16774768
16774768
16774768
16774768
16774768
16774768
16774768
16774768
16774768
16774768
16774768
16774768
16774768
16774768
16774768
16774768
16774768
16774768
16774768
16774768
16774768
16774768
16774768
16774768
16774768
16774768
16774768
16774768
16774768
16774768
16774768
16774768
16774768
16774768
16774768
16774768
16774768
16774768
16774768
16774768
16774768
16774768
16774768
16774768
16774768
16774768
16774768
16774768
16774768
16774768
16774768
16774768
16774768
16774768
16774768
16774768
16774768
16774768
16774768
16774768
16774768
16774768
16774768
16774768
16774768
16774768
16774768
16774768
16774768
16774768
16774768
16774768
16774768
16774768
16774768
16774768
16774768
16774768
16774768
16774768
16774768
16774768
16774768
16774768
16774768
16774768
16774768
16774768
16774768
16774768
16774768
16774768
16774768
16774768
16774768
16774768
16774768
16774768
16774768
16774768
16774768
16774768
16774768
16774768
16774768
16774768
16774768
16774768
16774768
16774768
16774768
16774768
16774768
16774768
16774768
16774768
16774768
16774768
16774768
16774768
16774768
16768728
16764648
16731080
16693536
16662752
16634456
16604904
16575616
16548448
16520024
16494984
16472512
16450432
16431800
16416808
16404176
16393936
16385192
16376624
16367600
16358272
16346984
16334272
16321144
16306760
16292848
16280024
16268040
16256664
16245448
16235160
16225176
16214640
16203536
16192616
16181688
16171712
16162800
16154152
16145424
16136776
16127512
16117632
16107560
16097920
16088400
16079128
16070016
16061392
16053240
16045344
16037312
16029024
16019952
16010392
16000912
15991904
15983328
15975720
15968760
15962688
15957312
15952448
15948176
15943736
15938200
15931672
15925040
15919392
15915192
15913064
15913488
15915728
15918352
15920176
15919976
15917488
15912920
15906456
15898824
15891000
15883800
15878280
15874528
15872952
15873416
15874824
15876432
15877456
15877472
15876344
15874336
15872456
15871264
15871312
15872344
15873616
15874848
15875704
15876152
15876336
15876664
15877856
15879792
15882400
15886216
15890776
15895768
15901136
15906808
15912248
15917224
15921304
15924488
15927064
15929240
15931456
15934208
15937792
15941904
15946256
15950688
15954040
15956008
15956296
15955800
15955664
15956416
15959160
15963920
15969448
15974720
15979240
15982120
15983512
15983376
15981264
15977608
15972528
15966856
15961336
15956488
15953288
15951248
15950144
15950120
15950704
15951848
15952824
15953360
15953664
15953408
15952824
15951848
15950424
15948552
15946048
15943040
15939616
15936056
15933088
15931040
15930264
15930576
15931544
15932992
15934464
15935920
15936888
15937448
15938040
15938264
15938224
15937848
15937200
15936520
15935696
15933464
15929872
15926264
15922928
15920256
15919488
15921408
15925552
15930136
15933512
15935024
15934064
15930704
15925256
15918096
15910128
15902160
15895536
15890776
15888392
15888432
15890272
15893360
15896744
15899592
15901248
15901568
15901032
15900016
15898584
15897104
15895840
15894544
15893272
15892040
15891112
15890736
15890840
15891464
15892512
15893800
15895432
15897552
15899912
15902168
15903728
15904424
15904376
15904040
15903520
15902768
15902168
15901616
15901024
15900392
15899984
15900256
15900776
15900440
15899048
15897176
15895408
15893944
15893760
15896144
15900920
15906312
15910704
15913752
15914376
15912136
15907184
15899408
15889736
15879416
15869944
15862336
15857520
15855224
15854784
15855272
15855600
15854984
15852992
15849840
15846432
15843112
15840536
15839240
15838768
15838368
15837384
15835168
15831640
15827072
15822592
15819208
15817216
15816424
15816616
15817488
15818608
15819536
15819928
15819792
15819016
15817664
15815824
15813600
15811368
15809184
15807400
15806104
15805136
15804552
15803560
15801192
15797288
15792592
15789008
15787080
15787344
15790408
15795360
15800568
15804344
15805760
15804688
15801080
15795472
15788792
15782104
15776848
15774360
15775416
15779824
15786552
15794608
15803120
15811208
15818352
15824312
15829472
15834168
15838856
15843304
15847376
15850912
15853704
15855640
15857072
15858232
15859304
15860776
15863344
15866944
15871368
15876264
15881376
15886056
15889992
15893248
15895928
15898184
15900336
15902416
15904512
15906416
15908112
15909448
15910080
15910216
15909824
15908792
15906832
15904072
15901408
15899320
15898344
15899712
15903408
15907584
15910840
15912336
15911816
15909472
15905456
15899944
15893112
15885784
15878768
15873000
15869080
15867368
15867528
15869016
15871240
15873504
15875040
15875456
15875000
15873744
15871976
15870440
15869192
15868304
15867656
15867032
15866344
15865440
15864584
15863816
15863120
15862912
15863392
15864280
15865528
15867120
15868520
15869320
15869712
15869848
15869576
15868992
15868160
15867088
15865904
15864768
15863840
15862632
15860376
15857696
15855280
15853024
15852272
15854184
15858112
15862840
15866360
15867496
15866320
15862800
15857304
15850720
15843536
15836768
15831160
15827608
15826584
15828000
15831264
15835320
15839632
15842984
15844752
15845064
15844128
15842640
15841256
15840512
15840400
15840520
15840784
15840856
15840416
15839896
15839584
15839664
15840568
15842192
15844264
15846560
15848672
15850608
15852192
15853232
15853912
15854104
15853928
15853680
15853480
15853336
15853128
15852952
15853072
15853344
15853600
15853784
15853128
15850792
15846984
15842888
15839296
15836528
15835928
15837528
15839552
15840680
15839896
15837112
15832312
15825432
15816520
15806176
15795032
15784592
15776080
15770656
15768456
15768968
15771312
15774320
15776904
15778392
15778672
15778200
15777648
15777632
15778616
15780328
15782632
15785160
15787728
15790520
15793456
15796400
15799376
15802096
15804752
15807392
15809808
15812072
15814336
15816304
15817792
15818552
15818472
15817592
15816064
15814224
15812056
15809648
15807056
15804504
15802640
15801672
15801208
15801168
15801016
15799784
15797032
15793600
15790936
15789968
15791360
15795240
15800664
15806360
15810840
15812880
15812264
15809080
15803744
15797312
15790904
15786104
15784256
15786056
15791192
15798616
15807264
15816088
15824712
15832200
15838448
15843784
15848520
15852976
15857192
15860760
15863768
15866064
15867688
15868888
15869712
15870480
15872016
15874544
15878224
15882904
15888080
15892992
15896920
15899792
15901824
15903008
15903888
15904680
15905184
15906056
15907072
15907784
15908280
15908384
15907560
15905664
15903536
15901232
15898288
15894656
15890720
15887304
15884584
15883216
15884440
15887752
15891480
15893640
15893336
15891088
15887200
15881688
15874848
15867232
15859320
15851928
15845608
15841080
15838672
15838312
15839720
15842048
15844408
15846032
15846680
15846512
15845688
15844584
15843472
15842672
15842072
15841648
15840896
15839632
15837976
15836232
15835000
15834656
15835080
15836152
15837544
15838912
15840184
15841296
15842136
15842632
15842888
15842944
15843000
15842936
15842608
15842272
15841824
15841312
15841040
15839792
15836856
15833264
15829328
15825656
15823520
15824216
15827616
15832064
15835992
15837832
15837136
15834544
15830400
15825056
15818864
15812808
15807744
15804320
15803088
15804256
15807296
15811384
15815608
15819040
15821216
15821744
15820856
15819152
15817328
15816048
15815480
15815584
15816008
15816048
15815776
15815440
15814888
15814456
15814544
15815216
15816840
15818672
15820416
15822320
15823624
15824304
15824496
15824256
15824184
15824360
15824416
15824128
15823200
15821776
15819808
15817440
15814704
15811576
15808088
15803808
15798408
15792296
15785976
15780192
15775480
15772808
15772456
15773400
15774504
15774952
15774032
15771480
15767040
15760808
15753680
15746720
15740624
15736392
15734432
15735024
15737528
15740904
15744512
15747360
15748776
15748720
15747864
15747112
15746952
15747416
15748160
15748928
15749280
15748696
15747320
15745600
15743920
15742704
15742064
15742384
15743616
15745248
15747008
15748432
15749264
15749424
15749200
15748960
15748672
15748512
15748648
15748880
15749200
15749744
15750536
15751816
15754184
15757624
15762112
15767344
15772888
15778016
15781856
15785072
15789016
15793776
15799640
15806816
15815080
15823040
15829808
15834848
15837904
15838896
15837992
15835520
15832280
15829440
15827752
15827976
15830184
15834080
15839256
15844720
15850064
15854792
15858704
15861960
15864600
15866712
15868512
15869920
15870432
15869848
15868664
15866808
15864352
15862024
15860312
15859320
15858952
15859200
15860024
15861088
15861808
15862224
15862408
15862216
15861816
15861216
15860728
15860344
15859832
15859472
15859160
15858536
15857520
15856144
15854776
15853496
15851952
15849856
15847264
15844896
15843136
15842544
15844128
15847856
15852368
15856232
15858376
15858488
15856656
15853016
15847712
15841152
15834176
15827440
15821792
15818448
15817552
15819056
15822368
15826280
15830024
15832736
15833504
15832544
15830464
15827904
15825728
15824304
15823352
15822760
15822496
15822336
15821992
15821696
15821840
15822536
15823592
15824848
15826336
15827832
15829032
15829904
15830488
15830784
15831224
15831488
15831472
15831472
15831408
15831672
15831704
15831312
15831312
15831512
15831696
15831584
15830784
15828968
15825944
15822640
15819944
15818088
15818296
15821424
15826272
15831120
15834384
15835408
15834096
15830360
15824272
15816144
15806728
15797512
15789456
15783680
15780776
15780600
15782272
15784536
15786256
15786432
15784552
15780816
15775784
15770288
15765208
15761480
15759600
15759096
15759104
15759208
15759024
15759032
15759424
15760056
15761128
15762504
15763896
15765352
15766664
15767280
15767032
15765824
15764056
15761976
15759632
15757720
15756296
15755032
15753776
15752376
15750808
15749304
15747744
15745904
15743688
15740728
15736296
15730272
15723488
15717768
15714112
15713144
15715448
15720368
15726072
15730760
15733024
15732176
15728640
15722984
15716016
15709320
15704160
15701528
15701688
15704416
15709072
15714376
15719856
15725400
15730984
15736664
15742720
15749320
15756816
15764944
15773624
15782136
15789688
15795880
15800872
15804944
15808608
15812176
15815976
15820160
15825136
15830552
15835976
15841016
15845408
15848528
15850848
15853000
15855072
15857264
15859472
15861720
15864184
15866816
15869664
15872600
15875448
15877736
15879360
15879728
15878032
15874568
15870080
15865520
15862000
15860824
15862512
15866800
15872232
15876912
15879984
15880880
15879656
15876600
15871808
15866176
15859752
15853552
15848744
15845256
15843744
15844224
15845968
15848576
15851216
15852656
15852352
15850704
15848048
15844752
15841352
15838112
15834808
15831592
15828368
15825224
15822272
15819296
15816848
15815080
15813624
15812736
15812360
15812576
15813232
15813992
15815080
15816608
15818224
15819280
15819872
15821232
15824304
15828464
15833336
15838392
15842968
15846112
15846840
15845640
15843304
15840552
15839024
15840216
15844424
15849024
15851640
15852112
15850544
15847416
15843096
15837776
15831832
15826424
15822072
15819240
15818048
15818696
15821152
15824672
15828496
15831552
15832800
15831896
15829360
15826168
15823144
15820712
15818864
15817288
15815488
15812976
15809560
15806136
15803544
15802592
15803760
15806664
15810696
15814664
15817696
15819248
15818888
15816960
15814184
15811096
15808088
15805400
15802496
15799328
15795816
15791936
15787840
15783448
15778952
15774552
15769760
15764656
15759120
15754008
15750088
15747488
15747112
15749200
15752760
15756344
15758264
15757760
15754264
15747864
15739536
15730200
15720824
15712704
15706624
15703360
15702704
15704024
15706208
15708488
15710768
15712344
15713056
15713272
15713312
15713480
15714072
15715176
15716392
15717264
15717592
15717392
15716504
15715304
15714848
15715640
15718096
15722080
15727024
15732320
15737576
15742736
15747800
15753032
15758848
15765008
15771536
15778016
15784504
15790664
15796616
15802720
15809056
15815032
15820888
15826432
15831016
15833896
15835416
15836800
15838656
15841464
15846112
15852568
15860048
15867368
15873464
15877824
15880424
15881080
15879888
15877056
15873416
15869912
15867248
15866152
15867032
15869360
15872312
15875304
15877752
15879368
15879984
15879792
15879272
15878392
15877112
15875576
15873960
15871968
15869376
15866872
15864728
15863144
15861992
15861176
15860760
15860648
15860760
15861008
15861008
15860560
15859576
15858048
15856368
15854816
15853656
15852936
15852544
15852464
15852376
15852528
15852944
15852864
15852008
15850896
15850184
15850024
15850512
15852784
15857256
15862504
15866840
15868840
15868240
15865408
15860440
15854080
15846896
15839352
15832536
15827712
15825320
15825560
15828168
15832216
15836552
15840088
15842200
15842152
15840168
15837240
15833832
15830600
15828000
15826088
15824544
15823448
15822672
15822040
15821536
15821128
15820664
15820344
15820480
15820672
15820528
15819440
15816744
15812232
15806000
15799152
15792232
15785736
15780048
15774880
15770032
15765824
15762216
15759424
15757160
15755360
15754272
15753608
15752720
15750800
15747848
15744824
15741904
15739976
15740440
15743032
15746552
15749224
15749744
15747528
15742536
15735496
15727088
15718456
15710768
15705432
15703160
15704248
15708152
15713448
15718656
15722840
15725696
15726800
15726504
15725656
15724840
15724616
15725200
15726504
15727992
15729216
15730224
15730872
15731256
15732136
15734440
15738736
15745352
15753440
15762464
15771904
15781272
15790080
15798440
15806016
15812920
15819096
15824592
15829616
15834400
15839144
15843888
15848760
15854136
15859424
15864904
15870800
15876296
15880136
15881744
15881392
15879488
15876728
15874784
15874832
15876592
15879104
15881280
15882448
15881976
15879392
15874672
15867888
15859640
15851200
15843488
15837896
15835072
15835112
15837248
15840616
15844744
15848472
15850936
15852096
15852168
15851168
15849520
15847488
15845168
15842848
15840512
15838232
15836168
15834800
15834272
15834448
15835512
15837312
15839544
15841728
15843352
15844464
15844992
15845072
15844768
15844552
15844512
15844320
15844240
15844096
15843752
15843352
15842712
15841704
15840848
15839784
15838008
15835448
15832152
15828960
15826216
15824624
15825656
15829280
15833888
15837760
15839512
15838472
15834840
15828976
15821136
15812304
15803488
15796320
15791720
15790056
15791496
15795384
15800440
15805344
15809200
15811088
15810688
15808576
15805648
15802952
15801120
15800424
15800824
15801864
15803104
15804456
15805632
15806616
15807616
15808680
15809976
15811384
15812864
15814320
15815656
15816520
15816720
15816344
15815704
15814824
15813944
15813376
15813064
15813160
15813824
15814936
15816168
15817184
15818072
15818944
15819608
15820312
15820656
15819784
15817512
15814336
15810904
15807848
15806344
15807808
15812128
15817704
15822728
15825632
15825944
15823576
15818512
15811496
15803488
15795960
15790240
15787376
15787768
15791128
15796256
15801704
15806520
15809760
15810848
15809856
15807592
15804576
15801696
15799696
15798712
15798728
15799264
15800136
15800856
15801256
15801664
15802216
15803152
15804360
15805848
15807632
15809472
15811312
15813072
15814400
15815080
15815128
15814800
15814224
15813704
15813304
15812816
15812264
15811928
15812080
15812592
15813376
15814096
15814600
15814640
15814120
15813368
15811872
15808728
15804096
15799080
15794864
15792128
15792064
15795728
15802272
15809856
15816288
15820080
15820936
15819008
15814432
15807872
15800392
15792928
15787208
15784184
15784176
15786832
15791480
15797312
15802696
15806672
15808592
15808152
15806032
15803184
15800512
15798776
15798168
15798784
15800120
15801376
15802336
15802840
15803208
15803592
15803904
15804640
15806000
15807880
15809776
15811680
15813272
15814360
15815376
15816240
15816848
15817464
15818272
15819280
15820520
15821760
15822840
15824072
15825456
15826856
15827872
15828336
15828456
15828072
15826960
15825216
15822312
15818216
15814264
15811648
15810752
15811792
15815504
15821352
15827544
15832256
15834120
15833056
15829256
15822736
15814280
15805128
15796808
15790552
15787288
15787160
15789608
15793528
15797888
15801792
15804216
15804680
15803360
15801136
15798776
15796576
15795112
15794488
15794488
15794784
15794904
15794912
15794720
15794408
15794792
15795920
15797568
15799888
15802504
15805216
15807384
15808800
15809856
15810200
15809896
15809184
15808136
15807024
15806280
15805440
15804264
15803016
15801472
15799776
15798064
15796208
15793904
15790848
15787328
15783200
15778224
15772176
15765896
15760600
15756616
15754344
15754472
15756696
15759976
15762680
15763744
15762736
15759456
15754016
15746680
15738152
15729760
15722520
15717856
15716296
15717416
15720520
15724552
15728720
15732256
15734360
15734856
15734336
15733536
15733056
15733128
15733808
15734720
15735624
15736464
15736968
15737352
15737944
15738704
15739856
15741256
15742776
15744208
15745088
15745656
15746096
15746400
15746504
15746328
15745944
15745464
15744792
15743888
15742712
15741256
15739872
15739080
15739376
15740896
15743008
15745160
15746968
15747640
15746896
15745768
15746328
15749480
15755504
15764776
15776408
15788752
15800576
15809752
15815656
15818152
15817568
15814952
15811384
15808144
15806488
15807192
15810336
15814808
15819848
15824576
15828864
15832720
15835656
15838136
15840488
15842576
15844672
15846584
15847768
15848176
15847792
15846848
15845672
15844728
15844640
15845512
15847352
15850080
15853168
15856208
15858808
15860600
15861912
15862712
15863008
15863088
15862928
15862608
15862280
15861968
15861848
15861632
15861144
15860568
15859952
15859704
15859656
15859272
15858056
15855808
15853288
15851216
15849720
15850352
15853488
15857872
15862440
15865408
15866336
15865400
15862168
15856720
15849584
15841608
15833632
15826920
15822480
15820632
15821456
15824560
15829032
15833896
15837704
15839408
15839568
15838072
15835264
15832256
15829320
15826896
15825280
15824424
15823984
15823584
15823208
15823224
15823520
15823880
15824312
15824880
15825648
15826376
15827448
15828528
15829272
15829944
15830288
15830400
15830448
15830384
15830232
15829936
15829304
15828392
15827472
15826832
15826144
15824648
15822328
15819448
15816416
15814208
15813928
15816216
15820192
15824392
15827376
15828104
15826368
15822328
15816272
15809048
15801408
15794608
15789712
15787416
15788128
15791496
15796432
15801864
15806712
15810016
15811456
15810664
15808344
15805568
15802928
15800968
15799888
15799736
15800056
15800416
15800792
15800872
15800624
15800136
15799432
15798576
15797320
15795792
15794240
15792408
15790200
15787664
15784688
15781160
15776848
15772384
15767800
15763232
15759328
15756344
15754152
15752896
15752336
15752032
15750976
15748616
15745472
15742336
15740096
15740024
15742528
15746792
15751040
15753368
15753032
15749728
15743896
15736344
15727816
15719600
15712424
15707360
15705256
15706216
15709560
15713880
15718040
15721392
15723312
15723608
15723000
15722344
15722056
15722344
15723120
15723776
15723800
15723320
15722336
15721064
15720400
15720872
15722584
15725520
15729384
15733448
15737264
15740152
15742120
15743520
15744744
15745880
15747208
15748944
15751080
15754112
15758504
15763704
15769976
15777080
15784208
15791256
15797784
15802680
15805376
15806416
15807544
15809672
15813256
15818704
15825632
15832744
15838824
15842776
15844624
15844368
15842016
15838192
15833696
15829824
15827760
15828232
15831256
15836040
15841624
15847144
15852392
15856848
15860376
15862736
15863928
15864472
15864272
15863152
15861288
15859192
15856960
15854768
15853192
15852584
15852928
15854256
15856408
15858928
15861528
15863824
15865240
15865464
15864760
15863424
15861960
15860640
15859384
15858568
15858192
15858144
15858096
15857584
15856856
15855928
15854728
15853584
15852408
15850744
15847952
15844416
15841008
15838200
15837128
15838824
15842424
15846256
15849240
15849912
15848120
15844264
15838072
15830432
15822256
15814776
15808904
15805664
15805304
15807432
15811424
15816216
15820752
15824088
15825592
15824800
15822032
15818384
15814688
15811600
15809576
15808896
15808984
15809328
15809704
15809792
15809856
15810000
15810120
15810480
15811248
15812392
15813792
15815096
15816208
15817032
15817496
15817616
15817480
15817264
15817224
15817376
15817656
15818208
15819104
15820224
15821200
15822160
15822928
15822640
15820928
15817552
15813616
15810224
15808088
15808864
15812424
15817104
15821232
15823544
15823648
15821208
15816448
15809928
15802200
15794656
15788536
15784784
15784016
15786312
15790920
15796760
15802344
15806368
15808384
15808024
15805688
15802136
15798184
15795272
15793872
15793928
15794912
15796304
15797576
15797992
15797560
15796328
15794536
15792792
15791320
15790480
15789880
15789064
15788016
15786176
15783312
15779528
15775032
15770584
15766864
15764176
15762168
15760576
15759304
15758360
15757528
15756808
15756312
15755808
15755104
15754096
15752128
15748544
15743408
15738160
15733648
15730896
15731208
15734392
15739080
15743600
15746696
15747208
15744728
15739648
15732432
15723936
15715512
15708792
15704824
15704256
15706480
15710392
15714656
15717968
15720224
15721304
15721344
15720856
15720488
15720912
15722040
15723680
15725552
15726872
15727536
15727760
15727688
15728056
15729544
15732584
15737520
15743864
15751080
15758496
15765608
15772064
15777992
15783408
15788968
15794656
15800544
15806560
15812280
15817360
15821600
15824968
15827888
15830952
15834760
15838760
15842768
15846528
15849520
15850816
15850040
15848016
15845672
15843712
15843440
15845936
15850896
15857080
15862944
15867304
15869672
15869512
15866848
15862344
15856704
15851168
15846840
15844328
15843928
15845400
15848208
15851408
15854560
15857320
15859056
15859496
15858792
15857224
15854880
15852008
15849112
15846624
15844384
15842600
15841448
15840760
15840648
15841304
15842744
15844520
15846088
15847160
15847624
15847744
15847336
15846240
15844896
15843496
15842168
15841472
15841224
15841024
15840928
15841104
15841752
15842272
15842504
15842440
15841912
15841200
15839888
15837520
15834280
15830704
15827088
15824016
15822816
15824296
15827768
15831520
15834320
15835360
15834544
15831920
15827144
15820760
15813360
15806096
15799992
15795984
15795096
15797208
15801472
15806984
15812232
15815920
15817224
15815848
15812392
15807992
15804160
15801592
15800152
15799864
15800160
15800376
15799872
15798424
15796488
15794704
15793544
15793472
15794040
15795080
15796968
15799120
15801128
15802536
15803088
15803304
15803760
15804664
15806040
15807792
15809832
15811464
15812072
15811432
15809464
15806408
15802744
15798760
15793936
15787808
15780728
15773704
15767136
15762272
15760584
15762112
15765528
15768736
15770048
15768992
15765528
15760000
15752824
15744864
15737184
15730816
15726480
15724824
15725808
15728808
15732672
15736408
15739288
15740632
15740584
15739736
15738840
15738280
15738048
15738280
15738552
15738528
15738056
15736808
15735232
15734056
15733664
15734424
15736112
15738328
15740928
15742968
15744280
15744904
15744720
15744280
15743776
15743336
15743112
15743056
15743184
15743176
15743128
15743584
15744416
15745840
15747808
15749520
15750840
15751048
15749304
15746088
15743256
15742440
15744256
15749328
15757592
15767600
15777584
15785512
15790616
15792944
15793016
15791464
15789288
15787648
15787856
15790312
15794736
15800784
15807168
15812944
15818224
15822560
15826192
15829296
15831944
15834464
15836912
15839176
15841152
15842256
15842712
15842800
15842856
15843664
15845192
15847304
15850208
15853952
15858024
15861616
15864504
15866520
15867856
15868752
15869296
15869568
15869904
15870080
15869936
15870016
15870192
15870296
15870184
15869560
15868952
15867984
15866784
15865512
15863056
15859464
15855376
15851584
15848544
15847432
15849272
15853176
15857560
15860968
15862424
15861736
15858864
15853880
15847168
15839624
15832000
15825360
15820616
15818280
15818272
15820160
15823456
15827120
15830056
15831216
15829720
15825696
15820080
15814520
15810048
15806984
15805128
15804248
15803904
15803792
15803832
15804200
15805464
15807632
15810176
15812744
15815608
15818768
15821704
15824072
15825848
15827144
15828424
15829816
15831320
15832496
15833088
15833072
15832160
15830728
15829592
15829032
15828576
15827648
15826112
15824304
15822336
15820896
15821576
15824680
15829024
15832760
15834520
15834016
15831168
15826176
15819504
15811800
15804240
15798120
15794024
15792608
15793976
15797480
15801968
15806624
15810640
15812592
15812104
15809752
15806296
15802680
15799496
15797104
15795368
15793672
15791536
15788792
15785512
15782144
15778800
15775600
15772696
15770032
15767600
15765512
15763440
15761384
15758952
15756312
15753816
15751536
15749832
15748792
15748088
15747624
15746984
15745688
15743840
15741840
15740120
15738664
15737192
15735800
15733712
15729960
15724888
15719768
15715720
15714072
15716024
15721384
15728288
15734544
15738624
15739520
15737136
15732184
15725248
15717712
15710992
15706200
15704168
15705128
15708472
15713088
15718144
15722696
15726520
15729344
15731384
15733336
15735568
15738080
15740776
15743280
15745360
15747048
15748576
15750608
15753752
15758488
15765568
15774504
15785000
15796272
15807576
15818088
15827200
15834568
15840512
15845248
15849392
15852976
15856272
15859400
15862272
15865040
15867728
15870200
15872584
15875112
15877824
15880632
15883208
15884840
15885000
15883400
15880784
15877792
15874936
15873576
15874256
15876608
15879432
15881728
15882768
15882080
15879712
15875488
15869600
15862848
15855920
15849920
15845840
15844168
15844680
15846568
15849096
15851736
15853632
15853920
15852584
15849840
15846088
15841888
15837496
15833400
15829912
15827192
15825152
15823984
15823680
15823688
15823936
15824728
15825816
15826952
15828088
15829096
15829768
15829872
15829624
15829112
15828376
15827792
15827256
15826704
15826464
15826104
15825792
15825720
15825432
15825144
15824488
15822768
15819840
15816344
15812968
15810112
15808720
15810176
15813680
15817648
15820960
15822576
15822192
15819504
15814872
15808792
15801680
15794920
15789816
15787248
15787640
15790864
15796104
15802104
15808032
15812936
15815504
15815352
15812488
15807232
15800840
15794264
15788008
15782864
15778440
15774584
15770936
15766944
15762912
15759080
15755480
15752280
15749376
15746896
15744888
15743104
15741768
15741168
15741224
15741728
15742512
15743672
15744880
15745808
15746272
15746144
15745472
15744120
15742256
15740376
15738568
15736856
15735104
15732664
15728640
15723456
15718704
15715792
15715120
15716880
15720456
15724096
15726320
15726008
15722808
15717184
15709560
15701008
15692272
15684776
15679632
15677648
15679176
15683680
15689904
15696768
15703984
15710952
15717840
15724520
15731328
15738744
15747048
15755824
15764624
15772784
15780096
15786240
15791544
15796408
15801400
15806848
15813016
15819848
15826616
15832672
15837888
15841768
15844816
15847576
15850048
15852240
15854208
15855992
15857880
15859856
15861696
15863544
15865624
15867928
15870448
15872784
15875160
15877480
15878832
15878512
15876632
15873792
15870728
15868232
15867624
15869480
15872816
15876168
15878648
15879528
15878432
15875504
15870704
15864232
15856752
15849696
15843952
15840216
15838848
15839776
15842032
15844672
15847216
15848632
15848496
15846744
15843608
15839688
15835424
15831448
15828000
15825232
15823016
15821328
15820080
15819400
15819040
15819008
15819552
15820488
15821696
15822968
15824144
15825184
15825816
15826064
15826160
15826184
15826416
15826824
15827336
15827736
15827664
15827432
15827400
15827432
15827224
15826024
15823608
15820792
15817744
15814816
15813720
15815424
15819448
15823808
15826728
15827472
15825648
15821672
15815736
15808600
15801224
15794784
15790536
15789048
15790240
15794160
15799552
15804944
15809936
15813192
15814112
15812904
15810472
15807768
15805112
15803152
15801608
15800168
15798976
15798264
15798584
15800184
15802504
15804744
15806064
15806128
15804712
15801584
15796912
15791128
15784784
15778560
15772632
15767272
15762752
15759104
15756184
15753864
15752072
15750816
15749768
15748904
15748304
15747912
15747608
15746584
15744032
15740504
15736728
15733504
15732040
15733168
15736496
15740368
15743160
15743688
15741520
15737080
15730472
15722488
15714488
15707872
15703720
15702752
15704552
15708296
15712760
15716640
15719752
15721792
15722648
15722880
15723336
15724680
15726816
15729552
15732616
15735400
15738096
15740832
15744344
15749432
15756448
15765368
15775896
15787232
15798720
15809328
15818840
15826952
15833920
15839920
15845224
15849824
15853840
15857392
15860984
15864744
15868496
15872616
15876800
15880640
15884352
15887568
15889696
15889744
15888224
15886256
15884032
15882464
15882992
15885888
15890192
15894328
15896984
15898016
15897688
15895728
15892200
15887328
15881544
15875680
15870520
15866960
15865416
15865800
15867432
15870000
15872800
15874776
15875880
15875688
15873968
15871648
15868464
15864672
15861072
15857488
15854392
15852136
15850680
15850072
15850152
15850824
15851888
15853048
15853936
15854304
15854280
15853896
15853088
15852192
15851432
15850680
15850120
15849832
15849624
15849120
15848064
15846816
15845680
15844384
15842640
15840256
15837352
15834440
15831888
15830984
15832744
15836648
15840912
15843712
15844248
15842368
15837896
15831592
15824192
15816616
15809768
15804536
15801792
15801872
15804552
15808824
15813360
15817200
15819248
15818664
15816192
15812840
15809304
15806056
15802784
15799456
15795736
15791424
15786488
15780928
15775208
15769896
15765152
15761264
15758048
15755728
15754424
15753864
15753616
15753192
15752512
15751632
15750600
15749864
15749448
15749112
15748936
15748976
15749232
15749752
15750256
15750736
15750968
15751120
15751280
15750456
15748424
15745736
15743208
15741696
15741880
15744752
15750144
15756448
15762064
15765464
15765960
15763264
15757424
15749472
15740664
15732624
15726832
15724248
15724928
15728360
15732992
15737472
15741144
15743472
15744512
15744408
15744128
15744336
15745008
15746080
15747368
15748768
15750192
15751576
15753376
15755968
15759792
15765096
15771992
15779960
15788384
15796376
15803616
15809624
15814576
15819000
15822976
15826288
15829048
15831264
15833096
15834608
15836096
15837664
15839040
15840776
15843096
15845776
15848888
15852104
15854832
15855800
15855152
15853968
15852672
15851712
15852128
15854760
15858808
15862496
15864880
15865696
15864816
15862128
15857712
15851768
15844808
15837712
15831424
15827032
15825096
15825256
15826920
15829688
15832936
15835672
15837152
15837400
15836432
15834768
15832704
15830520
15828752
15827344
15826208
15825440
15825008
15825048
15825712
15827064
15828912
15831040
15833312
15835480
15837096
15837944
15838096
